acceleration,altitude,balls,depth,seafloor,thruster,time,velocity,x_position
0.30888765249130073,994.9969111234751,71,5.003088876524913,1000,0.0,0.1,0.030888765249130076,0.005000000000000001
0.30836327749449954,994.9907386141753,71,5.009261385824771,1000,0.0,0.2,0.06172509299858003,0.010000000000000002
0.3067937117585568,994.9814981677578,71,5.018501832242214,1000,0.0,0.30000000000000004,0.09240446417443571,0.015000000000000003
0.3041949093312267,994.969215772247,71,5.03078422775297,1000,0.0,0.4,0.12282395510755838,0.020000000000000004
0.3005966501907736,994.9539274102343,71,5.046072589765633,1000,0.0,0.5,0.15288362012663573,0.025000000000000005
0.29604180401633684,994.9356786301815,71,5.06432136981846,1000,0.0,0.6,0.1824878005282694,0.030000000000000006
0.29058523098881445,994.9145239978188,71,5.085476002181175,1000,0.0,0.7,0.21154632362715087,0.035
0.2842923683647116,994.8905264417724,71,5.1094735582275375,1000,0.0,0.7999999999999999,0.23997556046362203,0.04000000000000001
0.2772375654594257,994.8637565100715,71,5.136243489928494,1000,0.0,0.8999999999999999,0.2676993170095646,0.04500000000000001
0.2695022393352247,994.8342915559772,71,5.165708444022802,1000,0.0,0.9999999999999999,0.2946495409430871,0.05000000000000002
0.26117292839546485,994.8022148725989,71,5.197785127401065,1000,0.0,1.0999999999999999,0.3207668337826336,0.05500000000000002
0.2523393211608952,994.7676147960091,71,5.232385203990938,1000,0.0,1.2,0.34600076589872314,0.060000000000000026
0.24309233308429756,994.7305837960884,71,5.269416203911653,1000,0.0,1.3,0.3703099992071529,0.06500000000000003
0.23352229603469993,994.6912175732073,71,5.308782426792716,1000,0.0,1.4000000000000001,0.3936622288106229,0.07000000000000003
0.22371731398979572,994.6496141771863,71,5.350385822813676,1000,0.0,1.5000000000000002,0.4160339602096025,0.07500000000000004
0.21376182558383142,994.6058731629096,71,5.394126837090474,1000,0.0,1.6000000000000003,0.4374101427679856,0.08000000000000004
0.2037354005498615,994.5600947946273,71,5.439905205372772,1000,0.0,1.7000000000000004,0.45778368282297177,0.08500000000000005
0.1937117837615074,994.5123793085073,71,5.487620691492684,1000,0.0,1.8000000000000005,0.47715486119912254,0.09000000000000005
0.18375818834402852,994.462826240504,71,5.537173759496037,1000,0.0,1.9000000000000006,0.4955306800335254,0.09500000000000006
0.17393482879676125,994.4115338242126,71,5.588466175787357,1000,0.0,2.0000000000000004,0.5129241629132015,0.10000000000000006
0.16429467662691458,994.358598461155,71,5.641401538844946,1000,0.0,2.1000000000000005,0.529353630575893,0.10500000000000007
0.1548834147956612,994.3041142639495,71,5.695885736050491,1000,0.0,2.2000000000000006,0.5448419720554591,0.11000000000000007
0.14573956328801282,994.2481726711111,71,5.7518273288889175,1000,0.0,2.3000000000000007,0.5594159283842605,0.11500000000000007
0.13689474615612524,994.1908621308111,71,5.809137869188905,1000,0.0,2.400000000000001,0.573105402999873,0.12000000000000008
0.12837407016765803,994.1322678498094,71,5.867732150190569,1000,0.0,2.500000000000001,0.5859428100166388,0.12500000000000008
0.12019658637641255,994.072471602944,71,5.927528397055997,1000,0.0,2.600000000000001,0.59796246865428,0.1300000000000001
0.11237580816452557,994.0115515979969,71,5.98844840200307,1000,0.0,2.700000000000001,0.6092000494707326,0.1350000000000001
0.10492026224100856,993.9495823904274,71,6.050417609572554,1000,0.0,2.800000000000001,0.6196920756948334,0.1400000000000001
0.09635831340100404,993.8866495997239,71,6.1133504002760475,1000,0.0,2.9000000000000012,0.6293279070349338,0.1450000000000001
0.0897427712548497,993.8228193813079,71,6.1771806186920895,1000,0.0,3.0000000000000013,0.6383021841604187,0.1500000000000001
0.0834896207652379,993.7581542666842,71,6.241845733315784,1000,0.0,3.1000000000000014,0.6466511462369425,0.1550000000000001
0.07759268079261555,993.6927132252526,71,6.307286774747404,1000,0.0,3.2000000000000015,0.6544104143162041,0.16000000000000011
0.072043543537465,993.6265517483856,71,6.373448251614399,1000,0.0,3.3000000000000016,0.6616147686699505,0.16500000000000012
0.06683200288286435,993.5597219514898,71,6.440278048510223,1000,0.0,3.4000000000000017,0.6682979689582369,0.17000000000000012
0.06194644136145657,993.4922726901804,71,6.507727309819661,1000,0.0,3.5000000000000018,0.6744926130943826,0.17500000000000013
0.057374175098633885,993.4242496871199,71,6.575750312880086,1000,0.0,3.600000000000002,0.6802300306042459,0.18000000000000013
0.053101757368690154,993.3556956664858,71,6.644304333514197,1000,0.0,3.700000000000002,0.6855402063411149,0.18500000000000014
0.04911524236886162,993.286650493428,71,6.713349506571997,1000,0.0,3.800000000000002,0.690451730578001,0.19000000000000014
0.04540041150831568,993.2171513162551,71,6.78284868374488,1000,0.0,3.900000000000002,0.6949917717288326,0.19500000000000015
0.04194296496786446,993.1472327094325,71,6.852767290567442,1000,0.0,4.000000000000002,0.6991860682256191,0.20000000000000015
0.038728681553116436,993.0769268157944,71,6.923073184205535,1000,0.0,4.100000000000001,0.7030589363809308,0.20500000000000015
0.03574354997770261,993.0062634866566,71,6.993736513343405,1000,0.0,4.200000000000001,0.706633291378701,0.21000000000000016
0.03297387470890067,992.9352704187717,71,7.064729581228365,1000,0.0,4.300000000000001,0.709930678849591,0.21500000000000016
0.03017922380841789,992.8639755586486,71,7.136024441351408,1000,0.0,4.4,0.7129486012304328,0.22000000000000017
0.027818783230946473,992.7924025106933,71,7.20759748930676,1000,0.0,4.5,0.7157304795535274,0.22500000000000017
0.025634093501989932,992.7205731218029,71,7.279426878197133,1000,0.0,4.6,0.7182938889037264,0.23000000000000018
0.023613441868433074,992.6485075984938,71,7.3514924015061895,1000,0.0,4.699999999999999,0.7206552330905697,0.23500000000000018
0.02174567923213863,992.5762246183924,71,7.423775381607568,1000,0.0,4.799999999999999,0.7228298010137836,0.24000000000000019
0.02002022988769376,992.5037414359922,71,7.496258564007823,1000,0.0,4.899999999999999,0.724831824002553,0.2450000000000002
0.018427093074860654,992.4310739826611,71,7.568926017338827,1000,0.0,4.999999999999998,0.7266745333100391,0.25000000000000017
0.016956837880035675,992.3582369609513,71,7.641763039048631,1000,0.0,5.099999999999998,0.7283702170980426,0.25500000000000017
0.0156005928203419,992.2852439333134,71,7.714756066686639,1000,0.0,5.1999999999999975,0.7299302763800768,0.2600000000000002
0.014350031259666435,992.2121074053628,71,7.787892594637243,1000,0.0,5.299999999999997,0.7313652795060435,0.2650000000000002
0.013197353638836364,992.1388389038758,71,7.861161096124236,1000,0.0,5.399999999999997,0.7326850148699271,0.2700000000000002
0.012135267352288157,992.0654490497152,71,7.934550950284751,1000,0.0,5.4999999999999964,0.7338985416051559,0.2750000000000002
0.011156964970541926,991.991947625905,71,8.008052374094973,1000,0.0,5.599999999999996,0.7350142381022101,0.2800000000000002
0.009763174339346394,991.9183485703514,71,8.081651429648588,1000,0.0,5.699999999999996,0.7359905555361448,0.2850000000000002
0.008973689257890572,991.8446597779052,71,8.15534022209478,1000,0.0,5.799999999999995,0.7368879244619339,0.2900000000000002
0.008247120467799017,991.7708885142544,71,8.229111485745651,1000,0.0,5.899999999999995,0.7377126365087138,0.2950000000000002
0.007578598737597396,991.6970414646161,71,8.3029585353839,1000,0.0,5.999999999999995,0.7384704963824735,0.3000000000000002
0.006963608888939407,991.623124778889,71,8.376875221111035,1000,0.0,6.099999999999994,0.7391668572713674,0.3050000000000002
0.006397967698663629,991.5491441134849,71,8.450855886515159,1000,0.0,6.199999999999994,0.7398066540412338,0.3100000000000002
0.005877802570007341,991.475104670055,71,8.524895329944982,1000,0.0,6.299999999999994,0.7403944342982345,0.3150000000000002
0.005399531062659515,991.4010112313146,71,8.598988768685432,1000,0.0,6.399999999999993,0.7409343874045005,0.32000000000000023
0.004959841342492523,991.3268681941607,71,8.673131805839308,1000,0.0,6.499999999999993,0.7414303715387497,0.32500000000000023
0.0045556735881598556,991.2526796002709,71,8.747320399729064,1000,0.0,6.5999999999999925,0.7418859388975657,0.33000000000000024
0.004184202372528957,991.1784491643574,71,8.821550835642546,1000,0.0,6.699999999999992,0.7423043591348186,0.33500000000000024
0.0038428200214821583,991.1041803002438,71,8.895819699756242,1000,0.0,6.799999999999992,0.7426886411369669,0.34000000000000025
0.003529120940367933,991.0298761449206,71,8.970123855079342,1000,0.0,6.8999999999999915,0.7430415532310036,0.34500000000000025
0.0032408868888307825,990.9555395807287,71,9.04446041927133,1000,0.0,6.999999999999991,0.7433656419198867,0.35000000000000026
0.0029155213083633127,990.8811738613236,71,9.118826138676402,1000,0.0,7.099999999999991,0.7436571940507231,0.35500000000000026
0.002677193162359549,990.8067813699869,71,9.193218630013098,1000,0.0,7.19999999999999,0.743924913366959,0.36000000000000026
0.0024582647488504985,990.7323642960027,71,9.267635703997282,1000,0.0,7.29999999999999,0.744170739841844,0.36500000000000027
0.002257169885066763,990.6579246503197,71,9.342075349680318,1000,0.0,7.39999999999999,0.7443964568303507,0.3700000000000003
0.002072466791967844,990.5834642799688,71,9.416535720031273,1000,0.0,7.499999999999989,0.7446037035095475,0.3750000000000003
0.0019028285349191386,990.5089848813324,71,9.491015118667578,1000,0.0,7.599999999999989,0.7447939863630394,0.3800000000000003
0.001747034147421752,990.4344880123547,71,9.565511987645356,1000,0.0,7.699999999999989,0.7449686897777815,0.3850000000000003
0.0016039603975293935,990.3599751037729,71,9.64002489622711,1000,0.0,7.799999999999988,0.7451290858175345,0.3900000000000003
0.00147257415750153,990.2854474694495,71,9.714552530550439,1000,0.0,7.899999999999988,0.7452763432332846,0.3950000000000003
0.001351925338436284,990.2109063158729,71,9.78909368412715,1000,0.0,7.999999999999988,0.7454115357671283,0.4000000000000003
0.0012411403530405915,990.1363527508926,71,9.863647249107395,1000,0.0,8.099999999999987,0.7455356498024324,0.4050000000000003
0.0011394160712466744,990.0617877917516,71,9.93821220824835,1000,0.0,8.199999999999987,0.745649591409557,0.4100000000000003
0.0010460142350391605,989.9872123724683,71,10.012787627531656,1000,0.0,8.299999999999986,0.7457541928330609,0.4150000000000003
0.0006137382851350585,989.9126308158022,71,10.087369184197813,1000,0.0,8.399999999999986,0.7458155666615743,0.4200000000000003
0.0005634133059639301,989.838043625003,71,10.16195637499703,1000,0.0,8.499999999999986,0.7458719079921707,0.4250000000000003
0.0005172112011545424,989.7634512620917,71,10.23654873790826,1000,0.0,8.599999999999985,0.7459236291122862,0.4300000000000003
0.00047479477791905974,989.6888541512327,71,10.311145848767268,1000,0.0,8.699999999999985,0.7459711085900781,0.43500000000000033
0.000435854330759795,989.6142526818304,71,10.385747318169583,1000,0.0,8.799999999999985,0.7460146940231541,0.44000000000000034
0.0004001054149869619,989.5396472113739,71,10.460352788626048,1000,0.0,8.899999999999984,0.7460547045646528,0.44500000000000034
0.0003672867983367206,989.4650380680495,71,10.534961931950496,1000,0.0,8.999999999999984,0.7460914332444865,0.45000000000000034
0.0003371585767983761,989.3904255531393,71,10.609574446860712,1000,0.0,9.099999999999984,0.7461251491021663,0.45500000000000035
0.0003095004417873588,989.3158099432246,71,10.684190056775346,1000,0.0,9.199999999999983,0.7461560991463451,0.46000000000000035
0.0002841100867601619,989.2411914922092,71,10.758808507790848,1000,0.0,9.299999999999983,0.7461845101550211,0.46500000000000036
0.00026080174226127394,989.1665704331763,71,10.833429566823773,1000,0.0,9.399999999999983,0.7462105903292472,0.47000000000000036
0.00023940482923136757,989.091946980095,71,10.90805301990499,1000,0.0,9.499999999999982,0.7462345308121703,0.47500000000000037
0.00021976272117873216,989.0173213293866,71,10.982678670613419,1000,0.0,9.599999999999982,0.7462565070842881,0.48000000000000037
0.00020173160654183382,988.9426936613621,71,11.057306338637913,1000,0.0,9.699999999999982,0.7462766802449423,0.4850000000000004
-7.314404151183449e-05,988.868066724778,71,11.131933275221993,1000,0.0,9.799999999999981,0.7462693658407912,0.4900000000000004
-6.714233234687745e-05,988.7934404596173,71,11.206559540382749,1000,0.0,9.89999999999998,0.7462626516075564,0.4950000000000004
-6.163313493959415e-05,988.7188148107879,71,11.281185189212154,1000,0.0,9.99999999999998,0.7462564882940624,0.5000000000000003
-5.657602468268292e-05,988.6441897277186,71,11.355810272281314,1000,0.0,10.09999999999998,0.7462508306915941,0.5050000000000003
-5.19338962404733e-05,988.5695651639885,71,11.43043483601151,1000,0.0,10.19999999999998,0.7462456373019701,0.5100000000000003
-4.7672690801463186e-05,988.4949410769852,71,11.505058923014799,1000,0.0,10.29999999999998,0.74624087003289,0.5150000000000003
-4.3761145774042593e-05,988.4203174275933,71,11.57968257240663,1000,0.0,10.399999999999979,0.7462364939183126,0.5200000000000004
-4.017056507442812e-05,988.3456941799072,71,11.65430582009281,1000,0.0,10.499999999999979,0.7462324768618052,0.5250000000000004
-3.687460830808631e-05,988.271071300967,71,11.728928699032908,1000,0.0,10.599999999999978,0.7462287894009744,0.5300000000000004
-3.38490972870283e-05,988.196448760518,71,11.803551239482033,1000,0.0,10.699999999999978,0.7462254044912456,0.5350000000000004
-3.1071838455108824e-05,988.1218265307872,71,11.878173469212774,1000,0.0,10.799999999999978,0.7462222973074001,0.5400000000000004
-2.8522459909934323e-05,988.047204586281,71,11.952795413718915,1000,0.0,10.899999999999977,0.7462194450614091,0.5450000000000004
-2.6182261820272952e-05,987.9725829035975,71,12.027417096402438,1000,0.0,10.999999999999977,0.7462168268352272,0.5500000000000004
-0.0005099219762792187,987.8979663201338,71,12.102033679866198,1000,0.0,11.099999999999977,0.7461658346375992,0.5550000000000004
-0.00046808370912492794,987.8233544175072,71,12.176645582492867,1000,0.0,11.199999999999976,0.7461190262666867,0.5600000000000004
-0.00042968072044302977,987.7487468116876,71,12.251253188312331,1000,0.0,11.299999999999976,0.7460760581946424,0.5650000000000004
-0.000394430548701795,987.6741431501737,71,12.325856849826309,1000,0.0,11.399999999999975,0.7460366151397723,0.5700000000000004
-0.00036207401967315193,987.5995431093999,71,12.40045689060009,1000,0.0,11.499999999999975,0.746000407737805,0.5750000000000004
-0.0003323733167479199,987.5249463923593,71,12.475053607640703,1000,0.0,11.599999999999975,0.7459671704061301,0.5800000000000004
-0.0003051102126877363,987.4503527264208,71,12.54964727357919,1000,0.0,11.699999999999974,0.7459366593848614,0.5850000000000004
-0.0002800844490677967,987.3757618613269,71,12.624238138673185,1000,0.0,11.799999999999974,0.7459086509399546,0.5900000000000004
-0.00025711225087232605,987.3011735673554,71,12.698826432644672,1000,0.0,11.899999999999974,0.7458829397148674,0.5950000000000004
-0.00023602496480154824,987.2265876336335,71,12.773412366366511,1000,0.0,11.999999999999973,0.7458593372183873,0.6000000000000004
-0.00021666781084121262,987.1520038665898,71,12.847996133410241,1000,0.0,12.099999999999973,0.7458376704373031,0.6050000000000004
-0.00019889873755485075,987.0774220885334,71,12.922577911466597,1000,0.0,12.199999999999973,0.7458177805635476,0.6100000000000004
-0.00018258737237733177,987.0028421363508,71,12.997157863649228,1000,0.0,12.299999999999972,0.7457995218263099,0.6150000000000004
-0.00016761405893906387,986.9282638603087,71,13.07173613969127,1000,0.0,12.399999999999972,0.745782760420416,0.6200000000000004
-0.00042366406928617746,986.8536898209073,71,13.146310179092618,1000,0.0,12.499999999999972,0.7457403940134875,0.6250000000000004
-0.00038892218724869424,986.7791196707279,71,13.220880329272093,1000,0.0,12.599999999999971,0.7457015017947626,0.6300000000000004
-0.000357030994204626,986.7045530908583,71,13.295446909141628,1000,0.0,12.69999999999997,0.7456657986953421,0.6350000000000005
-0.0003277563082965994,986.6299897885519,71,13.37001021144808,1000,0.0,12.79999999999997,0.7456330230645124,0.6400000000000005
-0.00030088322846300725,986.5554294950778,71,13.444570504922245,1000,0.0,12.89999999999997,0.7456029347416661,0.6450000000000005
-0.0002762145402549789,986.480871963749,71,13.51912803625101,1000,0.0,12.99999999999997,0.7455753132876406,0.6500000000000005
-0.000253569254521758,986.4063169681127,71,13.59368303188723,1000,0.0,13.09999999999997,0.7455499563621885,0.6550000000000005
-0.00023278126772629544,986.3317643002893,71,13.66823569971077,1000,0.0,13.199999999999969,0.7455266782354159,0.6600000000000005
-0.00021369813362700956,986.257213769447,71,13.742786230552976,1000,0.0,13.299999999999969,0.7455053084220532,0.6650000000000005
-0.00019617993695081353,986.1826652004042,71,13.817334799595812,1000,0.0,13.399999999999968,0.7454856904283581,0.6700000000000005
-0.00018009826048858714,986.108118432344,71,13.891881567656043,1000,0.0,13.499999999999968,0.7454676806023093,0.6750000000000005
-0.00016533523778222668,986.0335733176361,71,13.966426682363895,1000,0.0,13.599999999999968,0.7454511470785311,0.6800000000000005
-0.00015178268423829273,985.9590297207551,71,14.040970279244906,1000,0.0,13.699999999999967,0.7454359688101073,0.6850000000000005
-0.00021357465643111775,985.8844882596206,71,14.115511740379352,1000,0.0,13.799999999999967,0.7454146113444642,0.6900000000000005
-0.00019606857962025366,985.809948759172,71,14.190051240828003,1000,0.0,13.899999999999967,0.7453950044865022,0.6950000000000005
-0.0001799978652385611,985.735411058702,71,14.264588941298001,1000,0.0,13.999999999999966,0.7453770046999784,0.7000000000000005
-0.00016524475529569412,985.6608750106795,71,14.339124989320446,1000,0.0,14.099999999999966,0.7453604802244488,0.7050000000000005
-0.00015170116364657447,985.5863404796687,71,14.413659520331255,1000,0.0,14.199999999999966,0.7453453101080841,0.7100000000000005
-0.0001392678798972094,985.5118073413367,71,14.488192658663264,1000,0.0,14.299999999999965,0.7453313833200944,0.7150000000000005
-0.00012785383910632393,985.4372754815431,71,14.562724518456882,1000,0.0,14.399999999999965,0.7453185979361838,0.7200000000000005
-0.00011737545180362445,985.362744795504,71,14.637255204495982,1000,0.0,14.499999999999964,0.7453068603910035,0.7250000000000005
-0.00010775598930602453,985.2882151870248,71,14.71178481297519,1000,0.0,14.599999999999964,0.7452960847920729,0.7300000000000005
-9.892501973911069e-05,985.2136865677958,71,14.7863134322042,1000,0.0,14.699999999999964,0.745286192290099,0.7350000000000005
-9.081789055490542e-05,985.1391588567457,71,14.860841143254303,1000,0.0,14.799999999999963,0.7452771105010435,0.7400000000000005
-8.337525369151751e-05,985.0646319794481,71,14.93536802055187,1000,0.0,14.899999999999963,0.7452687729756744,0.7450000000000006
-7.654262984338043e-05,984.9901058675769,71,15.009894132423138,1000,0.0,14.999999999999963,0.7452611187126901,0.7500000000000006
-0.00021190754693943287,984.9155818747811,71,15.084418125218939,1000,0.0,15.099999999999962,0.7452399279579961,0.7550000000000006
-0.000194541939698804,984.8410598274047,71,15.158940172595342,1000,0.0,15.199999999999962,0.7452204737640262,0.7600000000000006
-0.0001785998609932119,984.7665395660268,71,15.233460433973134,1000,0.0,15.299999999999962,0.745202613777927,0.7650000000000006
-0.00016396455015364788,984.6920209442945,71,15.307979055705426,1000,0.0,15.399999999999961,0.7451862173229116,0.7700000000000006
-0.0001505288341913417,984.6175038278507,71,15.382496172149375,1000,0.0,15.499999999999961,0.7451711644394924,0.7750000000000006
-0.0001381943388288743,984.5429880933501,71,15.457011906649937,1000,0.0,15.59999999999996,0.7451573450056095,0.7800000000000006
-0.00012687076472036834,984.4684736275572,71,15.531526372442851,1000,0.0,15.69999999999996,0.7451446579291374,0.7850000000000006
-0.00011647522343230712,984.3939603265164,71,15.606039673483531,1000,0.0,15.79999999999996,0.7451330104067941,0.7900000000000006
