acceleration,altitude,balls,depth,seafloor,thruster,time,velocity,x_position
0.29769076862279786,994.9970230923137,71,5.002976907686228,1000,0.0,0.1,0.029769076862279788,0.005000000000000001
0.2972031468144567,994.9910741531594,71,5.0089258468406,1000,0.0,0.2,0.059489391543725456,0.010000000000000002
0.29574347500755344,994.982167779255,71,5.017832220745048,1000,0.0,0.30000000000000004,0.0890637390444808,0.015000000000000003
0.2933260702862586,994.9703281446476,71,5.029671855352359,1000,0.0,0.4,0.11839634607310666,0.020000000000000004
0.28997766821694276,994.9555887333581,71,5.0444112666418395,1000,0.0,0.5,0.14739411289480092,0.025000000000000005
0.28573678487301,994.9379919542199,71,5.06200804578005,1000,0.0,0.6,0.17596779138210192,0.030000000000000006
0.28065276319890403,994.9175886474497,71,5.082411352550249,1000,0.0,0.7,0.2040330677019923,0.035
0.2747845445552452,994.894437495234,71,5.1055625047660005,1000,0.0,0.7999999999999999,0.23151152215751683,0.04000000000000001
0.2681992180678174,994.8686043508376,71,5.13139564916243,1000,0.0,0.8999999999999999,0.2583314439642986,0.04500000000000001
0.26097040874326854,994.8401615023537,71,5.159838497646293,1000,0.0,0.9999999999999999,0.28442848483862543,0.05000000000000002
0.25317656977324454,994.8091868881721,71,5.190813111827888,1000,0.0,1.0999999999999999,0.3097461418159499,0.05500000000000002
0.24489924493206297,994.7757632815412,71,5.224236718458803,1000,0.0,1.2,0.3342360663091562,0.060000000000000026
0.23622136372088778,994.739977461273,71,5.260022538726927,1000,0.0,1.3,0.35785820268124496,0.06500000000000003
0.22722562544870004,994.7019193847505,71,5.298080615249539,1000,0.0,1.4000000000000001,0.38058076522611495,0.07000000000000003
0.21799301950098948,994.6616813780329,71,5.338318621967161,1000,0.0,1.5000000000000002,0.4023800671762139,0.07500000000000004
0.2086015184825793,994.6193573561304,71,5.380642643869607,1000,0.0,1.6000000000000003,0.42324021902447184,0.08000000000000004
0.19912496960786574,994.5750420845319,71,5.424957915468133,1000,0.0,1.7000000000000004,0.4431527159852584,0.08500000000000005
0.18963219846859802,994.5288304909486,71,5.471169509051345,1000,0.0,1.8000000000000005,0.4621159358321182,0.09000000000000005
0.18018632883225433,994.4808170340772,71,5.519182965922879,1000,0.0,1.9000000000000006,0.4801345687153436,0.09500000000000006
0.17084431294518113,994.4310951340761,71,5.568904865923866,1000,0.0,2.0000000000000004,0.4972190000098617,0.10000000000000006
0.161656659284167,994.3797566674823,71,5.620243332517694,1000,0.0,2.1000000000000005,0.5133846659382784,0.10500000000000007
0.1526673389897642,994.3268915274986,71,5.673108472501419,1000,0.0,2.2000000000000006,0.5286513998372547,0.11000000000000007
0.14391384833763263,994.2725872490315,71,5.727412750968521,1000,0.0,2.3000000000000007,0.543042784671018,0.11500000000000007
0.13542740244586413,994.2169286965399,71,5.783071303460082,1000,0.0,2.400000000000001,0.5565855249156044,0.12000000000000008
0.12723323477011694,994.1599978117007,71,5.840002188299343,1000,0.0,2.500000000000001,0.5693088483926161,0.12500000000000008
0.1193509775420291,994.1018734170859,71,5.898126582914025,1000,0.0,2.600000000000001,0.581243946146819,0.1300000000000001
0.11179509987392891,994.0426310714726,71,5.957368928527446,1000,0.0,2.700000000000001,0.5924234561342119,0.1350000000000001
0.10457538250162712,993.9823429720341,71,6.017657027965884,1000,0.0,2.800000000000001,0.6028809943843746,0.1400000000000001
0.09753827535424774,993.9210794898421,71,6.078920510157864,1000,0.0,2.9000000000000012,0.6126348219197993,0.1450000000000001
0.09101455722406356,993.8589058620779,71,6.141094137922084,1000,0.0,3.0000000000000013,0.6217362776422057,0.1500000000000001
0.08483274075284598,993.7958839069062,71,6.204116093093833,1000,0.0,3.1000000000000014,0.6302195517174903,0.1550000000000001
0.0789887165389995,993.732072064569,71,6.267927935430972,1000,0.0,3.2000000000000015,0.6381184233713902,0.16000000000000011
0.07347607752064673,993.6675254614566,71,6.332474538543318,1000,0.0,3.3000000000000016,0.6454660311234549,0.16500000000000012
0.06828652496935472,993.6022959930947,71,6.397704006905357,1000,0.0,3.4000000000000017,0.6522946836203903,0.17000000000000012
0.06341023932995411,993.5364324223393,71,6.463567577660696,1000,0.0,3.5000000000000018,0.6586357075533857,0.17500000000000013
0.05883621441524111,993.4699804894398,71,6.530019510560186,1000,0.0,3.600000000000002,0.6645193289949098,0.18000000000000013
0.05455255476034183,993.4029830309927,71,6.597016969007281,1000,0.0,3.700000000000002,0.669974584470944,0.18500000000000014
0.050546736951314356,993.3354801051761,71,6.664519894823888,1000,0.0,3.800000000000002,0.6750292581660755,0.19000000000000014
0.046805836496791736,993.2675091209945,71,6.732490879005463,1000,0.0,3.900000000000002,0.6797098418157547,0.19500000000000015
0.04331672234441408,993.1991049695895,71,6.800895030410483,1000,0.0,4.000000000000002,0.6840415140501961,0.20000000000000015
0.04006622149052099,993.1303001559696,71,6.869699844030407,1000,0.0,4.100000000000001,0.6880481361992482,0.20500000000000015
0.03704125632588749,993.0611249297864,71,6.938875070213591,1000,0.0,4.200000000000001,0.6917522618318369,0.21000000000000016
0.03422895743340458,992.9916074140289,71,7.008392585971109,1000,0.0,4.300000000000001,0.6951751575751773,0.21500000000000016
0.031419638535119,992.9217757018861,71,7.078224298113978,1000,0.0,4.4,0.6983171214286893,0.22000000000000017
0.02901043213913371,992.8516538854218,71,7.148346114578238,1000,0.0,4.5,0.7012181646426027,0.22500000000000017
0.026776313113100605,992.7812643058264,71,7.218735694173629,1000,0.0,4.6,0.7038957959539127,0.23000000000000018
0.024706025980190217,992.7106276659712,71,7.289372334028823,1000,0.0,4.699999999999999,0.7063663985519317,0.23500000000000018
0.02278881011650627,992.6397631380148,71,7.360236861985181,1000,0.0,4.799999999999999,0.7086452795635824,0.24000000000000019
0.021014416648087397,992.568688465892,71,7.43131153410802,1000,0.0,4.899999999999999,0.7107467212283911,0.2450000000000002
0.019373116728055105,992.4974200626018,71,7.502579937398139,1000,0.0,4.999999999999998,0.7126840329011966,0.25000000000000017
0.01785570269424792,992.4259731022848,71,7.574026897715202,1000,0.0,5.099999999999998,0.7144696031706215,0.25500000000000017
0.016453483425375396,992.3543616071335,71,7.645638392866518,1000,0.0,5.1999999999999975,0.716114951513159,0.2600000000000002
0.015158275043633273,992.2825985292317,71,7.71740147076827,1000,0.0,5.299999999999997,0.7176307790175223,0.2650000000000002
0.013962387955337809,992.2106958274504,71,7.789304172549576,1000,0.0,5.399999999999997,0.719027017813056,0.2700000000000002
0.012858611079138611,992.1386645395584,71,7.861335460441673,1000,0.0,5.4999999999999964,0.7203128789209698,0.2750000000000002
0.011840193983816378,992.0665148497264,71,7.933485150273608,1000,0.0,5.599999999999996,0.7214968983193515,0.2800000000000002
0.010900827544176006,991.994256151619,71,8.005743848380984,1000,0.0,5.699999999999996,0.7225869810737691,0.2850000000000002
0.01004527920297828,991.9218970007196,71,8.078102999280391,1000,0.0,5.799999999999995,0.7235915089940669,0.2900000000000002
0.009245902119001672,991.849445390799,71,8.150554609200988,1000,0.0,5.899999999999995,0.724516099205967,0.2950000000000002
0.008509155908210641,991.7769086893194,71,8.223091310680667,1000,0.0,5.999999999999995,0.7253670147967881,0.3000000000000002
0.007830284907966873,991.7042936849906,71,8.295706315009426,1000,0.0,6.099999999999994,0.7261500432875848,0.3050000000000002
0.0072048710611533,991.6316066319512,71,8.368393368048796,1000,0.0,6.199999999999994,0.7268705303937001,0.3100000000000002
0.006628813660013312,991.5588532907752,71,8.441146709224766,1000,0.0,6.299999999999994,0.7275334117597014,0.3150000000000002
0.0060983096903018215,991.4860389665024,71,8.513961033497639,1000,0.0,6.399999999999993,0.7281432427287317,0.32000000000000023
0.00560983487597949,991.4131685438807,71,8.586831456119272,1000,0.0,6.499999999999993,0.7287042262163296,0.32500000000000023
0.0051601254961510115,991.3402465200041,71,8.659753479995867,1000,0.0,6.5999999999999925,0.7292202387659447,0.33000000000000024
0.0047461610223274876,991.2672770345173,71,8.732722965482685,1000,0.0,6.699999999999992,0.7296948548681774,0.33500000000000024
0.0043651476046938685,991.1942638975545,71,8.80573610244555,1000,0.0,6.799999999999992,0.7301313696286468,0.34000000000000025
0.00401450242028876,991.1212106155674,71,8.878789384432618,1000,0.0,6.8999999999999915,0.7305328198706756,0.34500000000000025
0.0036918388833082232,991.0481204151915,71,8.95187958480852,1000,0.0,6.999999999999991,0.7309020037590065,0.35000000000000026
0.0033949527076723735,990.9749962652885,71,9.025003734711497,1000,0.0,7.099999999999991,0.7312414990297738,0.35500000000000026
0.003110481657403132,990.901841010569,71,9.098158989431049,1000,0.0,7.19999999999999,0.7315525471955141,0.36000000000000026
0.002860113487749588,990.8286571547145,71,9.171342845285478,1000,0.0,7.29999999999999,0.731838558544289,0.36500000000000027
0.002629803929199148,990.7554470008208,71,9.244552999179199,1000,0.0,7.39999999999999,0.732101538937209,0.3700000000000003
0.002417960517545373,990.6822126673219,71,9.317787332678096,1000,0.0,7.499999999999989,0.7323433349889635,0.3750000000000003
0.002223114955252177,990.6089561026735,71,9.391043897326545,1000,0.0,7.599999999999989,0.7325656464844887,0.3800000000000003
0.0020439137824302153,990.5356790988872,71,9.464320901112819,1000,0.0,7.699999999999989,0.7327700378627318,0.3850000000000003
0.0018791096931167187,990.462383304004,71,9.537616695996023,1000,0.0,7.799999999999988,0.7329579488320435,0.3900000000000003
0.0017275534612535717,990.3890702335862,71,9.61092976641384,1000,0.0,7.899999999999988,0.7331307041781688,0.3950000000000003
0.0015881864411458897,990.315741281304,71,9.684258718696068,1000,0.0,7.999999999999988,0.7332895228222834,0.4000000000000003
0.0014600336079099282,990.2423977286857,71,9.757602271314376,1000,0.0,8.099999999999987,0.7334355261830744,0.4050000000000003
0.0013421971044012767,990.1690407540963,71,9.830959245903728,1000,0.0,8.199999999999987,0.7335697458935145,0.4100000000000003
0.0012338502622849274,990.0956714410042,71,9.904328558995703,1000,0.0,8.299999999999986,0.733693130919743,0.4150000000000003
0.0011342320662170104,990.0222907855916,71,9.977709214408339,1000,0.0,8.399999999999986,0.7338065541263646,0.4200000000000003
0.0010426420315036286,989.9488997037587,71,10.051100296241291,1000,0.0,8.499999999999986,0.733910818329515,0.4250000000000003
0.0007906408213304024,989.8755007155175,71,10.124499284482456,1000,0.0,8.599999999999985,0.7339898824116481,0.4300000000000003
0.000726777481622321,989.8020944595015,71,10.197905540498436,1000,0.0,8.699999999999985,0.7340625601598103,0.43500000000000033
0.000668066580331748,989.7286815228198,71,10.27131847718022,1000,0.0,8.799999999999985,0.7341293668178435,0.44000000000000034
0.0006140933646923417,989.6552624452044,71,10.344737554795651,1000,0.0,8.899999999999984,0.7341907761543127,0.44500000000000034
0.000564476321928469,989.5818377228258,71,10.418162277174302,1000,0.0,8.999999999999984,0.7342472237865055,0.45000000000000034
0.0005188645379695658,989.5084078118017,71,10.491592188198332,1000,0.0,9.099999999999984,0.7342991102403025,0.45500000000000035
0.00047693526250565827,989.4349731314251,71,10.565026868574988,1000,0.0,9.199999999999983,0.734346803766553,0.46000000000000035
0.00043839166482033566,989.3615340671317,71,10.638465932868291,1000,0.0,9.299999999999983,0.734390642933035,0.46500000000000036
0.0004029607659211903,989.2880909732307,71,10.711909026769254,1000,0.0,9.399999999999983,0.7344309390096272,0.47000000000000036
0.0003703915335131752,989.2146441754145,71,10.785355824585551,1000,0.0,9.499999999999982,0.7344679781629785,0.47500000000000037
0.0003404531273256568,989.1411939730668,71,10.858806026933122,1000,0.0,9.599999999999982,0.734502023475711,0.48000000000000037
0.0003129332832056564,989.0677406413864,71,10.932259358613525,1000,0.0,9.699999999999982,0.7345333168040316,0.4850000000000004
0.0002876368252441537,988.9942844333378,71,11.00571556666218,1000,0.0,9.799999999999981,0.734562080486556,0.4900000000000004
0.00030344555095438385,988.9208251908336,71,11.079174809166346,1000,0.0,9.89999999999998,0.7345924250416515,0.4950000000000004
0.0002789141567647397,988.8473631591879,71,11.152636840812079,1000,0.0,9.99999999999998,0.734620316457328,0.5000000000000003
0.0002563650558798666,988.7738985638916,71,11.22610143610837,1000,0.0,10.09999999999998,0.7346459529629159,0.5050000000000003
0.00023563820505333633,988.7004316122133,71,11.299568387786712,1000,0.0,10.19999999999998,0.7346695167834212,0.5100000000000003
0.0002165864608252046,988.6269624946704,71,11.373037505329663,1000,0.0,10.29999999999998,0.7346911754295037,0.5150000000000003
0.0001990745431188233,988.553491386382,71,11.446508613618045,1000,0.0,10.399999999999979,0.7347110828838156,0.5200000000000004
0.00018297808158480018,988.4800184483128,71,11.519981551687243,1000,0.0,10.499999999999979,0.734729380691974,0.5250000000000004
0.00016818273816695853,988.4065438284161,71,11.593456171583822,1000,0.0,10.599999999999978,0.7347461989657907,0.5300000000000004
0.00015458339986661686,988.3330676626856,71,11.6669323373144,1000,0.0,10.699999999999978,0.7347616573057774,0.5350000000000004
0.00014208343614719135,988.2595900761206,71,11.740409923879339,1000,0.0,10.799999999999978,0.7347758656493921,0.5400000000000004
0.00013059401585056938,988.1861111836156,71,11.813888816384436,1000,0.0,10.899999999999977,0.7347889250509771,0.5450000000000004
0.0001200334788989295,988.1126310907757,71,11.887368909224323,1000,0.0,10.999999999999977,0.734800928398867,0.5500000000000004
0.00011032675842070876,988.0391498946682,71,11.960850105331794,1000,0.0,11.099999999999977,0.734811961074709,0.5550000000000004
0.00010140484928543711,987.9656676845123,71,12.034332315487758,1000,0.0,11.199999999999976,0.7348221015596376,0.5600000000000004
-3.508694648344432e-05,987.8921858252257,71,12.107814174774257,1000,0.0,11.299999999999976,0.7348185928649892,0.5650000000000004
-3.224944296616115e-05,987.8187042884337,71,12.181295711566326,1000,0.0,11.399999999999975,0.7348153679206926,0.5700000000000004
-2.964142209964263e-05,987.7452230480558,71,12.254776951944175,1000,0.0,11.499999999999975,0.7348124037784826,0.5750000000000004
-2.7244322655947918e-05,987.6717420801212,71,12.328257919878796,1000,0.0,11.599999999999975,0.734809679346217,0.5800000000000004
-2.5041084981603863e-05,987.5982613625974,71,12.401738637402568,1000,0.0,11.699999999999974,0.7348071752377189,0.5850000000000004
-2.3016029477424693e-05,987.524780875234,71,12.475219124766046,1000,0.0,11.799999999999974,0.7348048736347711,0.5900000000000004
-2.1154744920435917e-05,987.4513005994179,71,12.548699400582073,1000,0.0,11.899999999999974,0.7348027581602791,0.5950000000000004
-1.944398582887078e-05,987.3778205180417,71,12.622179481958243,1000,0.0,11.999999999999973,0.7348008137616961,0.6000000000000004
-1.7871578136640438e-05,987.3043406153814,71,12.695659384618631,1000,0.0,12.099999999999973,0.7347990266038825,0.6050000000000004
-1.6426332505057293e-05,987.2308608769843,71,12.769139123015695,1000,0.0,12.199999999999973,0.734797383970632,0.6100000000000004
-1.5097964651339102e-05,987.1573812895668,71,12.842618710433111,1000,0.0,12.299999999999972,0.7347958741741668,0.6150000000000004
-1.3877022126741047e-05,987.0839018409197,71,12.916098159080306,1000,0.0,12.399999999999972,0.7347944864719541,0.6200000000000004
-1.2754817020700325e-05,987.0104225198206,71,12.989577480179332,1000,0.0,12.499999999999972,0.7347932109902521,0.6250000000000004
-1.17233641111688e-05,986.9369433159553,71,13.063056684044716,1000,0.0,12.599999999999971,0.7347920386538409,0.6300000000000004
-5.2253046396840176e-05,986.8634646346204,71,13.136535365379636,1000,0.0,12.69999999999997,0.7347868133492013,0.6350000000000005
-4.802746949312152e-05,986.7899864335601,71,13.210013566439862,1000,0.0,12.79999999999997,0.7347820106022519,0.6400000000000005
-4.4143631229259916e-05,986.7165086739362,71,13.283491326063775,1000,0.0,12.89999999999997,0.734777596239129,0.6450000000000005
-4.057388977568194e-05,986.6430313200513,71,13.35696867994879,1000,0.0,12.99999999999997,0.7347735388501514,0.6500000000000005
-3.729283977450412e-05,986.5695543390946,71,13.430445660905407,1000,0.0,13.09999999999997,0.734769809566174,0.6550000000000005
-3.427713129009569e-05,986.4960777009093,71,13.503922299090712,1000,0.0,13.199999999999969,0.734766381853045,0.6600000000000005
-3.1505303431313235e-05,986.422601377777,71,13.577398622222983,1000,0.0,13.299999999999969,0.7347632313227018,0.6650000000000005
-2.8957631454335585e-05,986.3491253442211,71,13.650874655778939,1000,0.0,13.399999999999968,0.7347603355595564,0.6700000000000005
-2.6615986251884165e-05,986.275649576825,71,13.724350423175032,1000,0.0,13.499999999999968,0.7347576739609313,0.6750000000000005
-2.4463705223057468e-05,986.202174054066,71,13.797825945934074,1000,0.0,13.599999999999968,0.734755227590409,0.6800000000000005
-2.2485473602092862e-05,986.1286987561616,71,13.871301243838378,1000,0.0,13.699999999999967,0.7347529790430488,0.6850000000000005
-2.0667215395681235e-05,986.0552236649295,71,13.944776335070529,1000,0.0,13.799999999999967,0.7347509123215092,0.6900000000000005
-1.899599315190093e-05,985.9817487636573,71,14.018251236342747,1000,0.0,13.899999999999967,0.7347490127221941,0.6950000000000005
0.00010217689653081834,985.9082728406161,71,14.091727159383932,1000,0.0,13.999999999999966,0.7347592304118471,0.7000000000000005
9.391459693169816e-05,985.8347959784289,71,14.165204021571087,1000,0.0,14.099999999999966,0.7347686218715402,0.7050000000000005
8.63203078386641e-05,985.7613182530387,71,14.23868174696132,1000,0.0,14.199999999999966,0.7347772539023241,0.7100000000000005
7.934003604030228e-05,985.6878397342481,71,14.312160265751912,1000,0.0,14.299999999999965,0.7347851879059281,0.7150000000000005
7.292414998730687e-05,985.614360486216,71,14.385639513784005,1000,0.0,14.399999999999965,0.7347924803209268,0.7200000000000005
6.702702782916975e-05,985.5408805679136,71,14.459119432086377,1000,0.0,14.499999999999964,0.7347991830237097,0.7250000000000005
6.160673379381487e-05,985.4674000335439,71,14.532599966456086,1000,0.0,14.599999999999964,0.734805343697089,0.7300000000000005
5.662472063573775e-05,985.393918932927,71,14.606081067073001,1000,0.0,14.699999999999964,0.7348110061691526,0.7350000000000005
5.2045556062749646e-05,985.3204373118546,71,14.679562688145477,1000,0.0,14.799999999999963,0.7348162107247589,0.7400000000000005
4.783667121315907e-05,985.2469552124153,71,14.753044787584665,1000,0.0,14.899999999999963,0.7348209943918802,0.7450000000000006
4.3968129413660496e-05,985.1734726732949,71,14.826527326705147,1000,0.0,14.999999999999963,0.7348253912048216,0.7500000000000006
4.0412413585148664e-05,985.0999897300502,71,14.900010269949766,1000,0.0,15.099999999999962,0.7348294324461802,0.7550000000000006
3.7144230799103674e-05,985.0265064153633,71,14.973493584636692,1000,0.0,15.199999999999962,0.73483314686926,0.7600000000000006
3.414033260173816e-05,984.953022759273,71,15.046977240726944,1000,0.0,15.299999999999962,0.7348365609025203,0.7650000000000006
-0.00014180364661503978,984.8795405212193,71,15.120459478780731,1000,0.0,15.399999999999961,0.7348223805378588,0.7700000000000006
-0.0001303356427087402,984.8060595865219,71,15.19394041347809,1000,0.0,15.499999999999961,0.7348093469735879,0.7750000000000006
-0.00011979527919927455,984.7325798497774,71,15.267420150222657,1000,0.0,15.59999999999996,0.7347973674456679,0.7800000000000006
-0.00011010748948679625,984.6591012141076,71,15.340898785892328,1000,0.0,15.69999999999996,0.7347863566967192,0.7850000000000006
-0.00010120328621765647,984.5856235904708,71,15.414376409529138,1000,0.0,15.79999999999996,0.7347762363680974,0.7900000000000006
