acceleration,altitude,balls,depth,seafloor,thruster,time,velocity,x_position
0.2990930092402889,994.9970090699076,71,5.002990930092403,1000,0.0,0.1,0.029909300924028895,0.005000000000000001
0.29860085539234615,994.9910321312612,71,5.008967868738729,1000,0.0,0.2,0.05976938646326351,0.010000000000000002
0.2971276318482296,994.9820839162965,71,5.017916083703538,1000,0.0,0.30000000000000004,0.08948214964808647,0.015000000000000003
0.29468785440574635,994.9701888227876,71,5.029811177212404,1000,0.0,0.4,0.11895093508866111,0.020000000000000004
0.2913086282882483,994.9553806429958,71,5.044619357004153,1000,0.0,0.5,0.14808179791748594,0.025000000000000005
0.28702899842566004,994.9377021732198,71,5.062297826780158,1000,0.0,0.6,0.17678469776005196,0.030000000000000006
0.2818989784085757,994.9172047136598,71,5.082795286340249,1000,0.0,0.7,0.20497459560090953,0.035
0.27597829988771616,994.8939474711008,71,5.106052528899218,1000,0.0,0.7999999999999999,0.23257242558968114,0.04000000000000001
0.2693349362223569,994.8679968791796,71,5.13200312082041,1000,0.0,0.8999999999999999,0.25950591921191685,0.04500000000000001
0.2620434626797258,994.8394258526316,71,5.160574147368399,1000,0.0,0.9999999999999999,0.2857102654798894,0.05000000000000002
0.25418332000298277,994.8083129928835,71,5.191687007116418,1000,0.0,1.0999999999999999,0.31112859748018773,0.05500000000000002
0.24583704860533592,994.7747417626495,71,5.22525823735049,1000,0.0,1.2,0.3357123023407213,0.060000000000000026
0.23708855726300984,994.7387996468428,71,5.261200353157192,1000,0.0,1.3,0.3594211580670223,0.06500000000000003
0.22802148351373933,994.700577316201,71,5.2994226837990315,1000,0.0,1.4000000000000001,0.38222330641839625,0.07000000000000003
0.21871769377743408,994.6601678086214,71,5.339832191378646,1000,0.0,1.5000000000000002,0.4040950757961397,0.07500000000000004
0.20925596037834113,994.6176657414379,71,5.382334258562043,1000,0.0,1.6000000000000003,0.4250206718339738,0.08000000000000004
0.19971084106389234,994.573166565844,71,5.426833434156079,1000,0.0,1.7000000000000004,0.44499175594036305,0.08500000000000005
0.1901517751234763,994.5267658724987,71,5.4732341275013505,1000,0.0,1.8000000000000005,0.4640069334527107,0.09000000000000005
0.18064239952203565,994.4785587551581,71,5.521441244841842,1000,0.0,1.9000000000000006,0.4820711734049143,0.09500000000000006
0.1712400791202865,994.4286392370265,71,5.571360762973536,1000,0.0,2.0000000000000004,0.49919518131694296,0.10000000000000006
0.1619956374095253,994.3770997625206,71,5.6229002374793255,1000,0.0,2.1000000000000005,0.5153947450578955,0.10500000000000007
0.15295326841503776,994.3240307553307,71,5.675969244669266,1000,0.0,2.2000000000000006,0.5306900718993993,0.11000000000000007
0.14415060652624914,994.2695202420755,71,5.730479757924468,1000,0.0,2.3000000000000007,0.5451051325520242,0.11500000000000007
0.13561892887181215,994.2136535395316,71,5.786346460468389,1000,0.0,2.400000000000001,0.5586670254392054,0.12000000000000008
0.12738346425844277,994.1565130023452,71,5.843486997654893,1000,0.0,2.500000000000001,0.5714053718650497,0.12500000000000008
0.11946378336201813,994.098177827325,71,5.901822172675018,1000,0.0,2.600000000000001,0.5833517502012515,0.1300000000000001
0.11187424650397843,994.0387239098399,71,5.961276090160183,1000,0.0,2.700000000000001,0.5945391748516493,0.1350000000000001
0.10462448767552009,993.9782237474778,71,6.021776252522104,1000,0.0,2.800000000000001,0.6050016236192013,0.1400000000000001
0.09758444237451168,993.9167477406922,71,6.083252259307769,1000,0.0,2.9000000000000012,0.6147600678566525,0.1450000000000001
0.09103581932241654,993.8543613757133,71,6.145638624286659,1000,0.0,3.0000000000000013,0.6238636497888942,0.1500000000000001
0.08483218606943689,993.7911266888738,71,6.208873311126243,1000,0.0,3.1000000000000014,0.6323468683958379,0.1550000000000001
0.07896921836039533,993.7271023098506,71,6.27289769014943,1000,0.0,3.2000000000000015,0.6402437902318774,0.16000000000000011
0.07344028967048141,993.6623435279307,71,6.337656472069323,1000,0.0,3.3000000000000016,0.6475878191989255,0.16500000000000012
0.0682368816752966,993.596902377194,71,6.403097622805968,1000,0.0,3.4000000000000017,0.6544115073664551,0.17000000000000012
0.06334895874250232,993.5308277368699,71,6.469172263130039,1000,0.0,3.5000000000000018,0.6607464032407053,0.17500000000000013
0.058765305022930384,993.4641654434956,71,6.535834556504339,1000,0.0,3.600000000000002,0.6666229337429984,0.18000000000000013
0.054473824024677084,993.3969584118811,71,6.603041588118885,1000,0.0,3.700000000000002,0.6720703161454661,0.18500000000000014
0.050461801567657186,993.3292467622509,71,6.670753237749109,1000,0.0,3.800000000000002,0.6771164963022318,0.19000000000000014
0.04671613377023207,993.2610679512829,71,6.738932048717034,1000,0.0,3.900000000000002,0.681788109679255,0.19500000000000015
0.043223522249280416,993.1924569050925,71,6.8075430949074525,1000,0.0,4.000000000000002,0.686110461904183,0.20000000000000015
0.039970639056461865,993.1234461525115,71,6.876553847488435,1000,0.0,4.100000000000001,0.6901075258098291,0.20500000000000015
0.036944264061077786,993.0540659572899,71,6.945934042710029,1000,0.0,4.200000000000001,0.6938019522159369,0.21000000000000016
0.03413139755568842,992.9843444480928,71,7.015655551907179,1000,0.0,4.300000000000001,0.6972150919715058,0.21500000000000016
0.031072061684443635,992.9143122182788,71,7.085687781721174,1000,0.0,4.4,0.7003222981399502,0.22000000000000017
0.02868288763066143,992.8439931595885,71,7.156006840411476,1000,0.0,4.5,0.7031905869030163,0.22500000000000017
0.02646799050818936,992.7734094209932,71,7.226590579006859,1000,0.0,4.6,0.7058373859538352,0.23000000000000018
0.024416096758100466,992.7025815214301,71,7.297418478569823,1000,0.0,4.699999999999999,0.7082789956296452,0.23500000000000018
0.02251643765104959,992.6315284574907,71,7.368471542509298,1000,0.0,4.799999999999999,0.7105306393947503,0.24000000000000019
0.020758764600968194,992.5602678059053,71,7.439732194094783,1000,0.0,4.899999999999999,0.712606515854847,0.2450000000000002
0.019133356032450873,992.4888158207594,71,7.511184179240592,1000,0.0,4.999999999999998,0.7145198514580922,0.25000000000000017
0.01763101729205552,992.4171875254407,71,7.582812474559322,1000,0.0,5.099999999999998,0.7162829531872977,0.25500000000000017
0.016243074910067455,992.3453967993728,71,7.654603200627153,1000,0.0,5.1999999999999975,0.7179072606783045,0.2600000000000002
0.014961366348460172,992.2734564596416,71,7.726543540358468,1000,0.0,5.299999999999997,0.7194033973131505,0.2650000000000002
0.01377822621418308,992.2013783376481,71,7.798621662351924,1000,0.0,5.399999999999997,0.7207812199345688,0.2700000000000002
0.012686469775055477,992.1291733509569,71,7.870826649043131,1000,0.0,5.4999999999999964,0.7220498669120743,0.2750000000000002
0.011679374488409675,992.0568515705207,71,7.943148429479223,1000,0.0,5.599999999999996,0.7232178043609152,0.2800000000000002
0.010750660139739777,991.9844222834832,71,8.015577716516711,1000,0.0,5.699999999999996,0.7242928703748892,0.2850000000000002
0.00965148459034635,991.9118964815999,71,8.088103518400104,1000,0.0,5.799999999999995,0.7252580188339238,0.2900000000000002
0.008881729376188996,991.8392818624227,71,8.160718137577257,1000,0.0,5.899999999999995,0.7261461917715427,0.2950000000000002
0.008172460396753962,991.7665855186416,71,8.233414481358379,1000,0.0,5.999999999999995,0.7269634378112181,0.3000000000000002
0.007519064720007189,991.6938139842133,71,8.3061860157867,1000,0.0,6.099999999999994,0.7277153442832188,0.3050000000000002
0.006917259461285604,991.6209732771904,71,8.379026722809636,1000,0.0,6.199999999999994,0.7284070702293474,0.3100000000000002
0.006363071605915685,991.5480689394514,71,8.45193106054863,1000,0.0,6.299999999999994,0.729043377389939,0.3150000000000002
0.005852818496900176,991.4751060735274,71,8.524893926472592,1000,0.0,6.399999999999993,0.7296286592396289,0.32000000000000023
0.0053830890734767115,991.4020893767128,71,8.597910623287289,1000,0.0,6.499999999999993,0.7301669681469766,0.32500000000000023
0.004950725920083925,991.3290231726388,71,8.670976827361187,1000,0.0,6.5999999999999925,0.730662040738985,0.33000000000000024
0.004552808163615604,991.2559114404833,71,8.744088559516722,1000,0.0,6.699999999999992,0.7311173215553466,0.33500000000000024
0.004186635239157407,991.1827578419753,71,8.817242158024648,1000,0.0,6.799999999999992,0.7315359850792623,0.34000000000000025
0.003849711530097174,991.1095657463521,71,8.890434253647875,1000,0.0,6.8999999999999915,0.731920956232272,0.34500000000000025
0.003539731877078299,991.0363382534101,71,8.963661746589873,1000,0.0,6.999999999999991,0.7322749294199798,0.35000000000000026
0.0032545679412689025,990.9630782147888,71,9.036921785211284,1000,0.0,7.099999999999991,0.7326003862141067,0.35500000000000026
0.0026401740712546783,990.8897917744266,71,9.110208225573407,1000,0.0,7.19999999999999,0.7328644036212322,0.36000000000000026
0.00242728734068199,990.8164810611911,71,9.183518938808938,1000,0.0,7.29999999999999,0.7331071323553003,0.36500000000000027
0.002231498754085144,990.743148032968,71,9.25685196703201,1000,0.0,7.39999999999999,0.7333302822307088,0.3700000000000003
0.0020514455625852846,990.6697944902893,71,9.330205509710707,1000,0.0,7.499999999999989,0.7335354267869674,0.3750000000000003
0.0018858719991889281,990.5964220888906,71,9.403577911109396,1000,0.0,7.599999999999989,0.7337240139868862,0.3800000000000003
0.0017336211346863745,990.5230323512806,71,9.476967648719432,1000,0.0,7.699999999999989,0.7338973761003549,0.3850000000000003
0.0015936273134432985,990.4496266773974,71,9.550373322602603,1000,0.0,7.799999999999988,0.7340567388316992,0.3900000000000003
0.001464909134260611,990.3762063544228,71,9.623793645577116,1000,0.0,7.899999999999988,0.7342032297451253,0.3950000000000003
0.0013465629424625682,990.3027725658189,71,9.697227434181054,1000,0.0,7.999999999999988,0.7343378860393716,0.4000000000000003
0.0012377568005554145,990.229326399647,71,9.770673600352996,1000,0.0,8.099999999999987,0.7344616617194271,0.4050000000000003
0.0011377249061161657,990.155868856226,71,9.844131143774,1000,0.0,8.199999999999987,0.7345754342100387,0.4100000000000003
0.001045762426983198,990.0824008551807,71,9.917599144819274,1000,0.0,8.299999999999986,0.734680010452737,0.4150000000000003
0.0009612207252849659,990.0089232419282,71,9.9910767580718,1000,0.0,8.399999999999986,0.7347761325252655,0.4200000000000003
0.0008835029433349069,989.9354367936462,71,10.06456320635376,1000,0.0,8.499999999999986,0.734864482819599,0.4250000000000003
0.0008009303548882889,989.8619423360607,71,10.13805766393927,1000,0.0,8.599999999999985,0.7349445758550879,0.4300000000000003
0.0007361569378361055,989.7884405169059,71,10.211559483094156,1000,0.0,8.699999999999985,0.7350181915488715,0.43500000000000033
0.0006766156972492754,989.714931931594,71,10.285068068406016,1000,0.0,8.799999999999985,0.7350858531185964,0.44000000000000034
0.0006218849627284015,989.6414171274325,71,10.358582872567503,1000,0.0,8.899999999999984,0.7351480416148692,0.44500000000000034
0.0005715768967796307,989.567896607502,71,10.432103392497957,1000,0.0,8.999999999999984,0.7352051993045472,0.45000000000000034
0.0005253348035923447,989.4943708342236,71,10.505629165776448,1000,0.0,9.099999999999984,0.7352577327849065,0.45500000000000035
0.0004828306482419691,989.4208402326386,71,10.579159767361421,1000,0.0,9.199999999999983,0.7353060158497307,0.46000000000000035
0.0004437627704384796,989.3473051934259,71,10.652694806574099,1000,0.0,9.299999999999983,0.7353503921267746,0.46500000000000036
0.00040785377804498376,989.2737660756754,71,10.726233924324557,1000,0.0,9.399999999999983,0.735391177504579,0.47000000000000036
0.00037484860664153085,989.200223209439,71,10.799776790561081,1000,0.0,9.499999999999982,0.7354286623652432,0.47500000000000037
0.0003445127323864891,989.1266768980751,71,10.87332310192493,1000,0.0,9.599999999999982,0.7354631136384818,0.48000000000000037
0.00031663052635722184,989.053127420406,71,10.946872579594041,1000,0.0,9.699999999999982,0.7354947766911175,0.4850000000000004
0.00029100373941382375,988.9795750326995,71,11.020424967300547,1000,0.0,9.799999999999981,0.735523877065059,0.4900000000000004
0.0001792147245419479,988.9060208528457,71,11.093979147154299,1000,0.0,9.89999999999998,0.7355417985375131,0.4950000000000004
0.0001647086203416656,988.8324650259058,71,11.167534974094254,1000,0.0,9.99999999999998,0.7355582693995473,0.5000000000000003
0.00015137636611464844,988.7589076852021,71,11.24109231479787,1000,0.0,10.09999999999998,0.7355734070361587,0.5050000000000003
0.00013912302104857613,988.6853489532683,71,11.314651046731695,1000,0.0,10.19999999999998,0.7355873193382636,0.5100000000000003
0.00012786131560613788,988.6117889427213,71,11.388211057278678,1000,0.0,10.29999999999998,0.7356001054698242,0.5150000000000003
0.00011751103285091445,988.538227757064,71,11.46177224293599,1000,0.0,10.399999999999979,0.7356118565731093,0.5200000000000004
0.00010799843948575488,988.4646654914224,71,11.535334508577694,1000,0.0,10.499999999999979,0.7356226564170579,0.5250000000000004
9.925576263859549e-05,988.391102233223,71,11.608897766777027,1000,0.0,10.599999999999978,0.7356325819933218,0.5300000000000004
9.122070874029669e-05,988.3175380628165,71,11.682461937183445,1000,0.0,10.699999999999978,0.7356417040641958,0.5350000000000004
8.38360211291373e-05,988.2439730540499,71,11.756026945950076,1000,0.0,10.799999999999978,0.7356500876663087,0.5400000000000004
7.704907328112524e-05,988.1704072747925,71,11.829592725207439,1000,0.0,10.899999999999977,0.7356577925736368,0.5450000000000004
7.081149481241791e-05,988.0968407874202,71,11.90315921257975,1000,0.0,10.999999999999977,0.7356648737231181,0.5500000000000004
6.507882762518265e-05,988.0232736492596,71,11.976726350740337,1000,0.0,11.099999999999977,0.7356713816058805,0.5550000000000004
5.981020977729838e-05,987.9497059129969,71,12.050294087003023,1000,0.0,11.199999999999976,0.7356773626268582,0.5600000000000004
-0.00013139991623876604,987.8761394907334,71,12.123860509266546,1000,0.0,11.299999999999976,0.7356642226352343,0.5650000000000004
-0.00012076186959257575,987.8025742760886,71,12.197425723911373,1000,0.0,11.399999999999975,0.735652146448275,0.5700000000000004
-0.000110985239427064,987.7290101712962,71,12.270989828703806,1000,0.0,11.499999999999975,0.7356410479243324,0.5750000000000004
-0.00010200024646076843,987.6554470865062,71,12.344552913493775,1000,0.0,11.599999999999975,0.7356308478996864,0.5800000000000004
-9.374276794530264e-05,987.581884939144,71,12.418115060856064,1000,0.0,11.699999999999974,0.7356214736228919,0.5850000000000004
-8.615387850103074e-05,987.5083236533204,71,12.491676346679567,1000,0.0,11.799999999999974,0.7356128582350417,0.5900000000000004
-7.917942832188162e-05,987.4347631592913,71,12.565236840708788,1000,0.0,11.899999999999974,0.7356049402922096,0.5950000000000004
-7.276965569407759e-05,987.3612033929586,71,12.638796607041453,1000,0.0,11.999999999999973,0.7355976633266401,0.6000000000000004
-6.687883102306822e-05,987.2876442954142,71,12.712355704585807,1000,0.0,12.099999999999973,0.7355909754435378,0.6050000000000004
-6.146492979777943e-05,987.2140858125191,71,12.785914187480863,1000,0.0,12.199999999999973,0.735584828950558,0.6100000000000004
-5.648933212848322e-05,987.1405278945174,71,12.859472105482597,1000,0.0,12.299999999999972,0.7355791800173451,0.6150000000000004
-5.19165466931224e-05,987.0669704956812,71,12.933029504318865,1000,0.0,12.399999999999972,0.7355739883626758,0.6200000000000004
-4.771395710203771e-05,986.9934135739844,71,13.006586426015561,1000,0.0,12.499999999999972,0.7355692169669656,0.6250000000000004
-0.00010156347942407095,986.9198576679225,71,13.080142332077463,1000,0.0,12.599999999999971,0.7355590606190232,0.6300000000000004
-9.334211382883598e-05,986.8463026952818,71,13.153697304718227,1000,0.0,12.69999999999997,0.7355497264076403,0.6350000000000005
-8.578635185107958e-05,986.7727485805045,71,13.227251419495472,1000,0.0,12.79999999999997,0.7355411477724552,0.6400000000000005
-7.884229052222797e-05,986.6991952541501,71,13.300804745849812,1000,0.0,12.89999999999997,0.735533263543403,0.6450000000000005
-7.246039454449346e-05,986.6256426523998,71,13.374357347600206,1000,0.0,12.99999999999997,0.7355260175039485,0.6500000000000005
-6.659514201065078e-05,986.5520907166008,71,13.44790928339918,1000,0.0,13.09999999999997,0.7355193579897474,0.6550000000000005
-6.120469891870663e-05,986.4785393928488,71,13.521460607151166,1000,0.0,13.199999999999969,0.7355132375198555,0.6600000000000005
-5.62506201335817e-05,986.404988631603,71,13.59501136839695,1000,0.0,13.299999999999969,0.7355076124578421,0.6650000000000005
-5.169757463661982e-05,986.331438387333,71,13.668561612666988,1000,0.0,13.399999999999968,0.7355024427003785,0.6700000000000005
-4.7513093087164744e-05,986.2578886181939,71,13.742111381806096,1000,0.0,13.499999999999968,0.7354976913910697,0.6750000000000005
-4.3667335875537256e-05,986.1843392857281,71,13.815660714271845,1000,0.0,13.599999999999968,0.7354933246574822,0.6800000000000005
-4.01328800025477e-05,986.1107903545912,71,13.889209645408792,1000,0.0,13.699999999999967,0.7354893113694819,0.6850000000000005
-3.6884523250379394e-05,986.0372417922995,71,13.962758207700508,1000,0.0,13.799999999999967,0.7354856229171569,0.6900000000000005
-3.389910424176036e-05,985.9636935689988,71,14.036306431001181,1000,0.0,13.899999999999967,0.7354822330067328,0.6950000000000005
-0.000102813561250051,985.8901463738338,71,14.109853626166242,1000,0.0,13.999999999999966,0.7354719516506077,0.7000000000000005
-9.449192807242083e-05,985.8166001235879,71,14.183399876412022,1000,0.0,14.099999999999966,0.7354625024578005,0.7050000000000005
-8.684394266322352e-05,985.7430547417816,71,14.256945258218375,1000,0.0,14.199999999999966,0.7354538180635343,0.7100000000000005
-7.98150563664131e-05,985.6695101581258,71,14.330489841874165,1000,0.0,14.299999999999965,0.7354458365578976,0.7150000000000005
-7.335514008032006e-05,985.5959663080214,71,14.404033691978555,1000,0.0,14.399999999999965,0.7354385010438896,0.7200000000000005
-6.741812579904662e-05,985.5224231320983,71,14.477576867901686,1000,0.0,14.499999999999964,0.7354317592313098,0.7250000000000005
-6.196167728742533e-05,985.4488805757919,71,14.551119424208045,1000,0.0,14.599999999999964,0.735425563063581,0.7300000000000005
-5.694688751211103e-05,985.3753385889545,71,14.624661411045528,1000,0.0,14.699999999999964,0.7354198683748298,0.7350000000000005
-5.233800064782717e-05,985.301797125497,71,14.698202874503005,1000,0.0,14.799999999999963,0.735414634574765,0.7400000000000005
-4.8102156654471656e-05,985.2282561430611,71,14.771743856938915,1000,0.0,14.899999999999963,0.7354098243590995,0.7450000000000006
-4.420915658910852e-05,985.1547156027167,71,14.84528439728326,1000,0.0,14.999999999999963,0.7354054034434406,0.7500000000000006
-4.0631246963145366e-05,985.0811754686848,71,14.918824531315135,1000,0.0,15.099999999999962,0.7354013403187443,0.7550000000000006
-3.734292159610085e-05,985.0076357080823,71,14.992364291917793,1000,0.0,15.199999999999962,0.7353976060265847,0.7600000000000006
-3.4320739543011435e-05,984.934096290687,71,15.065903709313057,1000,0.0,15.299999999999962,0.7353941739526304,0.7650000000000006
-0.00013371312657760366,984.8605582104229,71,15.139441789577054,1000,0.0,15.399999999999961,0.7353808026399726,0.7700000000000006
-0.00012289171740510732,984.7870213590761,71,15.212978640923877,1000,0.0,15.499999999999961,0.7353685134682321,0.7750000000000006
-0.0001129462588700184,984.7134856371919,71,15.286514362808111,1000,0.0,15.59999999999996,0.7353572188423451,0.7800000000000006
-0.00010380581925708013,984.6399509533659,71,15.360049046634153,1000,0.0,15.69999999999996,0.7353468382604194,0.7850000000000006
-9.540521486130759e-05,984.566417223592,71,15.433582776408047,1000,0.0,15.79999999999996,0.7353372977389332,0.7900000000000006
