acceleration,altitude,balls,depth,seafloor,thruster,time,velocity,x_position
0.26403124599972533,994.99735968754,71,5.002640312459997,1000,0.0,0.1,0.026403124599972533,0.005000000000000001
0.2636463024164094,994.9920829120558,71,5.007917087944159,1000,0.0,0.2,0.05276775484161347,0.010000000000000002
0.26249371575771024,994.9841811994141,71,5.0158188005858975,1000,0.0,0.30000000000000004,0.0790171264173845,0.015000000000000003
0.2605835505321244,994.9736736512671,71,5.026326348732957,1000,0.0,0.4,0.10507548147059693,0.020000000000000004
0.2579346248039089,994.960586756872,71,5.039413243128056,1000,0.0,0.5,0.13086894395098783,0.025000000000000005
0.25457411009745523,994.9449541213759,71,5.05504587862413,1000,0.0,0.6,0.15632635496073335,0.030000000000000006
0.2505369311930097,994.9268161165679,71,5.073183883432133,1000,0.0,0.7,0.18138004808003433,0.035
0.24586498875959795,994.9062194618723,71,5.093780538127732,1000,0.0,0.7999999999999999,0.20596654695599412,0.04000000000000001
0.2406062346256017,994.8832167448304,71,5.1167832551695875,1000,0.0,0.8999999999999999,0.2300271704185543,0.04500000000000001
0.2348136345965207,994.8578658914425,71,5.142134108557408,1000,0.0,0.9999999999999999,0.2535085338782064,0.05000000000000002
0.2285440568380824,994.8302295974864,71,5.16977040251361,1000,0.0,1.0999999999999999,0.27636293956201463,0.05500000000000002
0.2218571248571869,994.8003747322816,71,5.199625267718383,1000,0.0,1.2,0.29854865204773334,0.060000000000000026
0.21481407309963488,994.7683717263459,71,5.231628273654152,1000,0.0,1.3,0.32003005935769685,0.06500000000000003
0.2074766403520629,994.7342939540066,71,5.265706045993443,1000,0.0,1.4000000000000001,0.34077772339290313,0.07000000000000003
0.1999060318094385,994.6982171213492,71,5.301782878650827,1000,0.0,1.5000000000000002,0.360768326573847,0.07500000000000004
0.19216197524772527,994.6602186689394,71,5.3397813310606885,1000,0.0,1.6000000000000003,0.37998452409861955,0.08000000000000004
0.18430189065683508,994.6203771976229,71,5.379622802377119,1000,0.0,1.7000000000000004,0.39841471316430305,0.08500000000000005
0.17638018636915692,994.5787719244428,71,5.421228075557241,1000,0.0,1.8000000000000005,0.4160527318012187,0.09000000000000005
0.1684476885519525,994.5354821743771,71,5.464517825622882,1000,0.0,1.9000000000000006,0.43289750065641397,0.09500000000000006
0.160551205241492,994.490586912259,71,5.509413087740938,1000,0.0,2.0000000000000004,0.44895262118056317,0.10000000000000006
0.15273322112700038,994.4441643179298,71,5.555835682070264,1000,0.0,2.1000000000000005,0.4642259432932632,0.10500000000000007
0.1450317152020166,994.3962914064484,71,5.603708593551611,1000,0.0,2.2000000000000006,0.47872911481346486,0.11000000000000007
0.13748009026594332,994.3470436940644,71,5.652956305935617,1000,0.0,2.3000000000000007,0.4924771238400592,0.11500000000000007
0.13010720108274615,994.2964949096696,71,5.7035050903304505,1000,0.0,2.400000000000001,0.5054878439483338,0.12000000000000008
0.12293746673108133,994.2447167506074,71,5.755283249392595,1000,0.0,2.500000000000001,0.5177815906214419,0.12500000000000008
0.11599105221129076,994.1917786810232,71,5.808221318976852,1000,0.0,2.600000000000001,0.529380695842571,0.1300000000000001
0.1092841045828503,994.137747770393,71,5.862252229606938,1000,0.0,2.700000000000001,0.540309106300856,0.1350000000000001
0.10282902965110291,994.0826885694664,71,5.917311430533534,1000,0.0,2.800000000000001,0.5505920092659663,0.1400000000000001
0.0966347963637109,994.0266630205763,71,5.973336979423768,1000,0.0,2.9000000000000012,0.5602554889023373,0.1450000000000001
0.09070725748295605,993.9697303991112,71,6.030269600888831,1000,0.0,3.0000000000000013,0.5693262146506329,0.1500000000000001
0.08500301243752151,993.9119477475217,71,6.08805225247827,1000,0.0,3.1000000000000014,0.577826515894385,0.1550000000000001
0.07961852870161623,993.8533689106453,71,6.146631089354725,1000,0.0,3.2000000000000015,0.5857883687645467,0.16000000000000011
0.07450274793152521,993.7940450462895,71,6.205954953710495,1000,0.0,3.3000000000000016,0.5932386435576992,0.16500000000000012
0.0696522697446478,993.7340246592363,71,6.2659753407637115,1000,0.0,3.4000000000000017,0.600203870532164,0.17000000000000012
0.06506213655734522,993.6733536508175,71,6.326646349182502,1000,0.0,3.5000000000000018,0.6067100841878985,0.17500000000000013
0.06072609796541175,993.612075381419,71,6.3879246185809455,1000,0.0,3.600000000000002,0.6127826939844397,0.18000000000000013
0.05663685309196216,993.5502307434897,71,6.449769256510309,1000,0.0,3.700000000000002,0.618446379293636,0.18500000000000014
0.05278627011977425,993.4878582428591,71,6.512141757140871,1000,0.0,3.800000000000002,0.6237250063056134,0.19000000000000014
0.04916558292719595,993.4249940863994,71,6.5750059136007035,1000,0.0,3.900000000000002,0.6286415645983331,0.19500000000000015
0.04576556530054518,993.3616722742864,71,6.638327725713542,1000,0.0,4.000000000000002,0.6332181211283876,0.20000000000000015
0.04257668361667146,993.2979246953374,71,6.702075304662547,1000,0.0,4.100000000000001,0.6374757894900548,0.20500000000000015
0.039589229193845374,993.2337812240966,71,6.766218775903491,1000,0.0,4.200000000000001,0.6414347124094393,0.21000000000000016
0.036793431714631716,993.1692698185384,71,6.830730181461582,1000,0.0,4.300000000000001,0.6451140555809024,0.21500000000000016
0.034179555247618475,993.1044166174279,71,6.895583382572148,1000,0.0,4.4,0.6485320111056643,0.22000000000000017
0.03173797845142975,993.0392460365327,71,6.960753963467229,1000,0.0,4.5,0.6517058089508072,0.22500000000000017
0.029459260548443198,992.9737808630322,71,7.026219136967795,1000,0.0,4.6,0.6546517350056515,0.23000000000000018
0.027305316567575198,992.908042636366,71,7.091957363634036,1000,0.0,4.699999999999999,0.6573822666624091,0.23500000000000018
0.025327062363871007,992.842051139076,71,7.1579488609239155,1000,0.0,4.799999999999999,0.6599149728987962,0.24000000000000019
0.023484770675409772,992.7758247940794,71,7.224175205920549,1000,0.0,4.899999999999999,0.6622634499663371,0.2450000000000002
0.02177015740574313,992.7093807475087,71,7.29061925249124,1000,0.0,4.999999999999998,0.6644404657069114,0.25000000000000017
0.02017528710294417,992.6427349480671,71,7.35726505193296,1000,0.0,5.099999999999998,0.6664579944172058,0.25500000000000017
0.01869258317702775,992.5759022227935,71,7.424097777206451,1000,0.0,5.1999999999999975,0.6683272527349086,0.2600000000000002
0.017314832887301165,992.5088963491912,71,7.491103650808815,1000,0.0,5.299999999999997,0.6700587360236386,0.2650000000000002
0.016035187966853902,992.4417301237091,71,7.558269876290847,1000,0.0,5.399999999999997,0.671662254820324,0.2700000000000002
0.014847161651229627,992.3744154266107,71,7.625584573389392,1000,0.0,5.4999999999999964,0.673146970985447,0.2750000000000002
0.013744622784589596,992.3069632832842,71,7.693036716715782,1000,0.0,5.599999999999996,0.6745214332639059,0.2800000000000002
0.012721787590076878,992.239383922082,71,7.7606160779180735,1000,0.0,5.699999999999996,0.6757936120229135,0.2850000000000002
0.011773209611977892,992.1716868287835,71,7.828313171216485,1000,0.0,5.799999999999995,0.6769709329841114,0.2900000000000002
0.010893768265682951,992.1038807978025,71,7.8961192021975535,1000,0.0,5.899999999999995,0.6780603098106797,0.2950000000000002
0.01007865636722554,992.0359739802577,71,7.964026019742294,1000,0.0,5.999999999999995,0.6790681754474022,0.3000000000000002
0.009323366956998813,991.9679739290434,71,8.032026070956604,1000,0.0,6.099999999999994,0.6800005121431021,0.3050000000000002
0.008579696804035352,991.899888080861,71,8.100111919138955,1000,0.0,6.199999999999994,0.6808584818235056,0.3100000000000002
0.007934968392719163,991.8317228829948,71,8.168277117005234,1000,0.0,6.299999999999994,0.6816519786627775,0.3150000000000002
0.007337965017438754,991.7634843054783,71,8.236515694521685,1000,0.0,6.399999999999993,0.6823857751645214,0.32000000000000023
0.006785259540688668,991.6951778753664,71,8.304822124633544,1000,0.0,6.499999999999993,0.6830643011185903,0.32500000000000023
0.006273655423851395,991.6268087087003,71,8.373191291299642,1000,0.0,6.5999999999999925,0.6836916666609755,0.33000000000000024
0.005800173524935582,991.558381540299,71,8.44161845970099,1000,0.0,6.699999999999992,0.684271684013469,0.33500000000000024
0.005362039290356362,991.4899007515047,71,8.51009924849524,1000,0.0,6.799999999999992,0.6848078879425047,0.34000000000000025
0.00495667039406269,991.4213703960065,71,8.578629603993432,1000,0.0,6.8999999999999915,0.685303554981911,0.34500000000000025
0.004581664862385147,991.3527942238597,71,8.647205776140247,1000,0.0,6.999999999999991,0.6857617214681495,0.35000000000000026
0.0042347897105057975,991.2841757038159,71,8.715824296184167,1000,0.0,7.099999999999991,0.6861852004392001,0.35500000000000026
0.0039139701061034395,991.2155180440709,71,8.784481955929147,1000,0.0,7.19999999999999,0.6865765974498104,0.36000000000000026
0.0036172790672221304,991.1468242115352,71,8.8531757884648,1000,0.0,7.29999999999999,0.6869383253565325,0.36500000000000027
0.0033429276944843796,991.0780969497226,71,8.921903050277397,1000,0.0,7.39999999999999,0.687272618125981,0.3700000000000003
0.003089255932196296,991.0093387953507,71,8.990661204649317,1000,0.0,7.499999999999989,0.6875815437192005,0.3750000000000003
0.002854723848470579,990.9405520937403,71,9.059447906259722,1000,0.0,7.599999999999989,0.6878670161040477,0.3800000000000003
0.0025960588886189463,990.871739431541,71,9.128260568459012,1000,0.0,7.699999999999989,0.6881266219929095,0.3850000000000003
0.002398805460905649,990.8029027812871,71,9.197097218712912,1000,0.0,7.799999999999988,0.6883665025390001,0.3900000000000003
0.0022164735563538133,990.7340439662976,71,9.265956033702375,1000,0.0,7.899999999999988,0.6885881498946355,0.3950000000000003
0.002047944113438047,990.665164671867,71,9.334835328132973,1000,0.0,7.999999999999988,0.6887929443059793,0.4000000000000003
0.0018921805723802812,990.5962664556307,71,9.403733544369295,1000,0.0,8.099999999999987,0.6889821623632173,0.4050000000000003
0.0017482230027669296,990.5273507571643,71,9.472649242835645,1000,0.0,8.199999999999987,0.689156984663494,0.4100000000000003
0.001615182617843472,990.4584189068719,71,9.541581093128173,1000,0.0,8.299999999999986,0.6893185029252783,0.4150000000000003
0.0014922366548198501,990.3894721342127,71,9.61052786578725,1000,0.0,8.399999999999986,0.6894677265907603,0.4200000000000003
0.0013786236008428614,990.3205115753177,71,9.679488424682333,1000,0.0,8.499999999999986,0.6896055889508446,0.4250000000000003
0.0012736387447589016,990.2515382800351,71,9.748461719964865,1000,0.0,8.599999999999985,0.6897329528253204,0.4300000000000003
0.001176630035377823,990.1825532184522,71,9.817446781547751,1000,0.0,8.699999999999985,0.6898506158288582,0.43500000000000033
0.00108699422762217,990.1135572869271,71,9.886442713072913,1000,0.0,8.799999999999985,0.6899593152516205,0.44000000000000034
0.0010041732986813203,990.044551313669,71,9.955448686331062,1000,0.0,8.899999999999984,0.6900597325814886,0.44500000000000034
0.0009276511170644617,989.9755360638997,71,10.024463936100382,1000,0.0,8.999999999999984,0.690152497693195,0.45000000000000034
0.0008130390171723802,989.9065126837402,71,10.093487316259873,1000,0.0,9.099999999999984,0.6902338015949122,0.45500000000000035
0.0007510652972665023,989.8374817929276,71,10.162518207072337,1000,0.0,9.199999999999983,0.6903089081246389,0.46000000000000035
0.0006938090235765912,989.768443964025,71,10.231556035975036,1000,0.0,9.299999999999983,0.6903782890269965,0.46500000000000036
0.0006409120556401449,989.6993997260017,71,10.300600273998292,1000,0.0,9.399999999999983,0.6904423802325605,0.47000000000000036
0.0005920433026154263,989.6303495675454,71,10.369650432454574,1000,0.0,9.499999999999982,0.6905015845628221,0.47500000000000037
0.0005468967008320281,989.5612939401221,71,10.438706059877864,1000,0.0,9.599999999999982,0.6905562742329052,0.48000000000000037
0.0005051893395244435,989.4922332608055,71,10.50776673919455,1000,0.0,9.699999999999982,0.6906067931668577,0.4850000000000004
0.00046665972434166403,989.4231679148916,71,10.576832085108478,1000,0.0,9.799999999999981,0.6906534591392919,0.4900000000000004
0.0004310661688897389,989.354098258316,71,10.645901741684096,1000,0.0,9.89999999999998,0.6906965657561809,0.4950000000000004
0.00039818530519311195,989.2850246198873,71,10.714975380112765,1000,0.0,9.99999999999998,0.6907363842867001,0.5000000000000003
0.0003678107045633387,989.2159473033515,71,10.78405269664848,1000,0.0,10.09999999999998,0.6907731653571565,0.5050000000000003
0.00033975160092744117,989.1468665892997,71,10.853133410700206,1000,0.0,10.19999999999998,0.6908071405172492,0.5100000000000003
0.000313831709208903,989.077782736931,71,10.922217263069022,1000,0.0,10.29999999999998,0.6908385236881701,0.5150000000000003
0.00028988813185461086,989.0086959856808,71,10.991304014319159,1000,0.0,10.399999999999979,0.6908675125013556,0.5200000000000004
0.0002677703470814787,988.9396065567272,71,11.060393443272766,1000,0.0,10.499999999999979,0.6908942895360637,0.5250000000000004
0.00020527347983854516,988.8705150750388,71,11.12948492496117,1000,0.0,10.599999999999978,0.6909148168840475,0.5300000000000004
0.00018961035913699523,988.8014216972468,71,11.198578302753166,1000,0.0,10.699999999999978,0.6909337779199612,0.5350000000000004
0.00017514197863687336,988.7323265680351,71,11.267673431964948,1000,0.0,10.799999999999978,0.6909512921178249,0.5400000000000004
0.00016177726751067883,988.6632298210505,71,11.336770178949406,1000,0.0,10.899999999999977,0.690967469844576,0.5450000000000004
0.000149432088025395,988.5941315797453,71,11.405868420254745,1000,0.0,10.999999999999977,0.6909824130533786,0.5500000000000004
0.00013802870904510646,988.5250319581528,71,11.474968041847173,1000,0.0,11.099999999999977,0.6909962159242831,0.5550000000000004
0.00012749531932270948,988.4559310616072,71,11.544068938392796,1000,0.0,11.199999999999976,0.6910089654562154,0.5600000000000004
0.00011776557760308757,988.3868289874058,71,11.613171012594194,1000,0.0,11.299999999999976,0.6910207420139757,0.5650000000000004
0.00010877819677730353,988.3177258254225,71,11.68227417457756,1000,0.0,11.399999999999975,0.6910316198336534,0.5700000000000004
0.00010047655953060283,988.2486216586735,71,11.75137834132652,1000,0.0,11.499999999999975,0.6910416674896064,0.5750000000000004
9.280836311774609e-05,988.1795165638409,71,11.820483436159112,1000,0.0,11.599999999999975,0.6910509483259182,0.5800000000000004
8.572529107278073e-05,988.1104106117554,71,11.889589388244614,1000,0.0,11.699999999999974,0.6910595208550254,0.5850000000000004
7.91827098234634e-05,988.0413038678428,71,11.958696132157215,1000,0.0,11.799999999999974,0.6910674391260078,0.5900000000000004
7.313938833274731e-05,987.9721963925363,71,12.0278036074637,1000,0.0,11.899999999999974,0.691074753064841,0.5950000000000004
2.021368571849997e-05,987.903088715093,71,12.09691128490704,1000,0.0,11.999999999999973,0.6910767744334129,0.6000000000000004
1.867091757492914e-05,987.8339808509404,71,12.166019149059558,1000,0.0,12.099999999999973,0.6910786415251704,0.6050000000000004
1.7245894039633607e-05,987.764872814329,71,12.235127185671015,1000,0.0,12.199999999999973,0.6910803661145744,0.6100000000000004
1.5929629391245904e-05,987.6957646184212,71,12.304235381578767,1000,0.0,12.299999999999972,0.6910819590775135,0.6150000000000004
1.4713823570517877e-05,987.6266562753752,71,12.373343724624753,1000,0.0,12.399999999999972,0.6910834304598705,0.6200000000000004
1.3590809872911606e-05,987.5575477964212,71,12.442452203578839,1000,0.0,12.499999999999972,0.6910847895408578,0.6250000000000004
1.2553506630064136e-05,987.488439191932,71,12.51156080806799,1000,0.0,12.599999999999971,0.6910860448915208,0.6300000000000004
1.1595372575566417e-05,987.4193304714892,71,12.58066952851087,1000,0.0,12.69999999999997,0.6910872044287784,0.6350000000000005
1.0710365614825207e-05,987.3502216439426,71,12.649778356057404,1000,0.0,12.79999999999997,0.6910882754653398,0.6400000000000005
9.892904739202183e-06,987.2811127174671,71,12.718887282532984,1000,0.0,12.89999999999997,0.6910892647558137,0.6450000000000005
9.137834845607783e-06,987.2120036996131,71,12.787996300386913,1000,0.0,12.99999999999997,0.6910901785392982,0.6500000000000005
8.440394238743299e-06,987.1428945973552,71,12.857105402644786,1000,0.0,13.09999999999997,0.6910910225787221,0.6550000000000005
7.796184612900845e-06,987.0737854171355,71,12.926214582864503,1000,0.0,13.199999999999969,0.6910918021971835,0.6600000000000005
7.201143323357914e-06,987.0046761649044,71,12.995323835095654,1000,0.0,13.299999999999969,0.6910925223115159,0.6650000000000005
6.651517772912575e-06,986.935566846158,71,13.064433153841984,1000,0.0,13.399999999999968,0.6910931874632932,0.6700000000000005
-3.587008454789043e-05,986.8664578861126,71,13.133542113887467,1000,0.0,13.499999999999968,0.6910896004548384,0.6750000000000005
-3.313230019974819e-05,986.79734925739,71,13.202650742609949,1000,0.0,13.599999999999968,0.6910862872248184,0.6800000000000005
-3.060348987766704e-05,986.7282409347025,71,13.271759065297532,1000,0.0,13.699999999999967,0.6910832268758306,0.6850000000000005
-2.8267700821062857e-05,986.6591328946919,71,13.340867105308106,1000,0.0,13.799999999999967,0.6910804001057484,0.6900000000000005
-2.61101983510649e-05,986.5900251157833,71,13.409974884216698,1000,0.0,13.899999999999967,0.6910777890859133,0.6950000000000005
-2.411737282333541e-05,986.5209175780484,71,13.479082421951562,1000,0.0,13.999999999999966,0.691075377348631,0.7000000000000005
-2.2276653694324143e-05,986.4518102630801,71,13.548189736919888,1000,0.0,14.099999999999966,0.6910731496832616,0.7050000000000005
-2.0576430156460816e-05,986.382703153876,71,13.617296846123912,1000,0.0,14.199999999999966,0.691071092040246,0.7100000000000005
-1.900597783950104e-05,986.3135962347318,71,13.686403765268158,1000,0.0,14.299999999999965,0.691069191442462,0.7150000000000005
-1.7555391113406473e-05,986.2444894911415,71,13.755510508858494,1000,0.0,14.399999999999965,0.6910674359033507,0.7200000000000005
-1.6215520564733606e-05,986.1753829097064,71,13.824617090293623,1000,0.0,14.499999999999964,0.6910658143512942,0.7250000000000005
-1.4977915249625563e-05,986.1062764780504,71,13.8937235219496,1000,0.0,14.599999999999964,0.6910643165597693,0.7300000000000005
-1.3834769359800597e-05,986.0371701847421,71,13.962829815257884,1000,0.0,14.699999999999964,0.6910629330828333,0.7350000000000005
-1.2778872961752373e-05,985.9680640192225,71,14.031935980777437,1000,0.0,14.799999999999963,0.6910616551955371,0.7400000000000005
-3.82703848769231e-05,985.8989582364069,71,14.101041763593141,1000,0.0,14.899999999999963,0.6910578281570494,0.7450000000000006
-3.534952349871311e-05,985.8298528070864,71,14.17014719291361,1000,0.0,14.999999999999963,0.6910542932046996,0.7500000000000006
-3.265160163872814e-05,985.7607477042819,71,14.239252295718064,1000,0.0,15.099999999999962,0.6910510280445357,0.7550000000000006
-3.0159600964053227e-05,985.6916429030734,71,14.308357096926509,1000,0.0,15.199999999999962,0.6910480120844392,0.7600000000000006
-2.7857802564713188e-05,985.6225383804431,71,14.377461619556927,1000,0.0,15.299999999999962,0.6910452263041827,0.7650000000000006
-2.5731687691581355e-05,985.5534341151296,71,14.446565884870468,1000,0.0,15.399999999999961,0.6910426531354136,0.7700000000000006
-2.3767846083543855e-05,985.4843300874944,71,14.51566991250555,1000,0.0,15.499999999999961,0.6910402763508052,0.7750000000000006
-2.195389130298046e-05,985.4152262793983,71,14.584773720601717,1000,0.0,15.59999999999996,0.691038080961675,0.7800000000000006
-2.0278382542211305e-05,985.3461226740859,71,14.65387732591406,1000,0.0,15.69999999999996,0.6910360531234208,0.7850000000000006
-1.873075240623458e-05,985.2770192560811,71,14.722980743918878,1000,0.0,15.79999999999996,0.6910341800481802,0.7900000000000006
