acceleration,altitude,balls,depth,seafloor,thruster,time,velocity,x_position
0.3540878496118501,994.9964591215039,91,5.003540878496119,1000,0.0,0.1,0.03540878496118501,0.005000000000000001
0.35341464949777085,994.9893840965128,91,5.010615903487214,1000,0.0,0.2,0.0707502499109621,0.010000000000000002
0.35140016633745574,994.9787950698583,91,5.0212049301416855,1000,0.0,0.30000000000000004,0.10589026654470768,0.015000000000000003
0.34806732667674145,994.9647253699371,91,5.035274630062924,1000,0.0,0.4,0.14069699921238182,0.020000000000000004
0.34345886442109325,994.9472210813716,91,5.052778918628373,1000,0.0,0.5,0.17504288565449116,0.025000000000000005
0.3376361390362369,994.9263404314158,91,5.073659568584185,1000,0.0,0.6,0.20880649955811487,0.030000000000000006
0.33067737825972376,994.9021530076774,91,5.0978469923225935,1000,0.0,0.7,0.24187423738408725,0.035
0.32267543230774054,994.8747388296159,91,5.125261170384079,1000,0.0,0.7999999999999999,0.27414178061486133,0.04000000000000001
0.3137351503488057,994.844187300051,91,5.1558126999490534,1000,0.0,0.8999999999999999,0.3055152956497419,0.04500000000000001
0.30397050547684856,994.8105960654312,91,5.189403934568796,1000,0.0,0.9999999999999999,0.33591234619742677,0.05000000000000002
0.2935016007029497,994.7740698148044,91,5.225930185195568,1000,0.0,1.0999999999999999,0.3652625062677217,0.05500000000000002
0.28245168568187257,994.7347190473208,91,5.265280952679159,1000,0.0,1.2,0.393507674835909,0.060000000000000026
0.27094430293615124,994.6926588368079,91,5.3073411631921115,1000,0.0,1.3,0.4206021051295241,0.06500000000000003
0.2591006648521002,994.6480076196464,91,5.351992380353585,1000,0.0,1.4000000000000001,0.4465121716147341,0.07000000000000003
0.24703734074181435,994.6008860290775,91,5.3991139709224765,1000,0.0,1.5000000000000002,0.4712159056889155,0.07500000000000004
0.23486430899308858,994.5514157954187,91,5.448584204581299,1000,0.0,1.6000000000000003,0.4947023365882244,0.08000000000000004
0.22268340486897698,994.4997187277112,91,5.500281272288811,1000,0.0,1.7000000000000004,0.5169706770751221,0.08500000000000005
0.21058717167539046,994.4459157882869,91,5.554084211713078,1000,0.0,1.8000000000000005,0.5380293942426612,0.09000000000000005
0.19865810316175223,994.3901262678311,91,5.609873732168961,1000,0.0,1.9000000000000006,0.5578952045588363,0.09500000000000006
0.1869682490389015,994.3324670648848,91,5.667532935115234,1000,0.0,2.0000000000000004,0.5765920294627265,0.10000000000000006
0.17557914379090317,994.2730520705006,91,5.726947929499415,1000,0.0,2.1000000000000005,0.5941499438418167,0.10500000000000007
0.16454201150229994,994.2119916560014,91,5.78800834399862,1000,0.0,2.2000000000000006,0.6106041449920467,0.11000000000000007
0.1538981958696806,994.1493922595434,91,5.850607740456522,1000,0.0,2.3000000000000007,0.6259939645790148,0.11500000000000007
0.14367976434299964,994.0853560654422,91,5.914643934557853,1000,0.0,2.400000000000001,0.6403619410133148,0.12000000000000008
0.1339102377544168,994.0199807689633,91,5.980019231036729,1000,0.0,2.500000000000001,0.6537529647887564,0.12500000000000008
0.1246054011159177,993.9533594184733,91,6.046640581526764,1000,0.0,2.600000000000001,0.6662135049003483,0.1300000000000001
0.11561531754803518,993.8855819148077,91,6.114418085192279,1000,0.0,2.700000000000001,0.6777750366551518,0.1350000000000001
0.10727197277391223,993.8167316914145,91,6.183268308585533,1000,0.0,2.800000000000001,0.6885022339325431,0.1400000000000001
0.09940234195786304,993.7468874446016,91,6.253112555398366,1000,0.0,2.9000000000000012,0.6984424681283293,0.1450000000000001
0.09199972955358224,993.6761232004933,91,6.323876799506735,1000,0.0,3.0000000000000013,0.7076424410836876,0.1500000000000001
0.0850538484357191,993.6045084179005,91,6.395491582099461,1000,0.0,3.1000000000000014,0.7161478259272595,0.1550000000000001
0.07855151499056395,993.5321081201579,91,6.467891879842092,1000,0.0,3.2000000000000015,0.7240029774263158,0.16000000000000011
0.07247727726842687,993.4589830496426,91,6.541016950357408,1000,0.0,3.3000000000000016,0.7312507051531585,0.16500000000000012
0.06681397391764664,993.3851898393881,91,6.6148101606119,1000,0.0,3.4000000000000017,0.7379321025449231,0.17000000000000012
0.061543224264984084,993.310781196891,91,6.689218803109042,1000,0.0,3.5000000000000018,0.7440864249714215,0.17500000000000013
0.056645851899217246,993.2358060958749,91,6.764193904125176,1000,0.0,3.600000000000002,0.7497510101613433,0.18000000000000013
0.05210224553610814,993.1603099724033,91,6.839690027596672,1000,0.0,3.700000000000002,0.7549612347149541,0.18500000000000014
0.04789266188230495,993.084334922313,91,6.91566507768699,1000,0.0,3.800000000000002,0.7597505009031846,0.19000000000000014
0.0439974757612389,993.0079198974651,91,6.992080102534921,1000,0.0,3.900000000000002,0.7641502484793086,0.19500000000000015
0.04039738299812042,992.9311008987871,91,7.068899101212833,1000,0.0,4.000000000000002,0.7681899867791206,0.20000000000000015
0.036876555559457076,992.8539131345536,91,7.14608686544634,1000,0.0,4.100000000000001,0.7718776423350664,0.20500000000000015
0.0338270590246768,992.77638709973,91,7.223612900270093,1000,0.0,4.200000000000001,0.7752603482375341,0.21000000000000016
0.031016897429065274,992.6985508959318,91,7.301449104068137,1000,0.0,4.300000000000001,0.7783620379804406,0.21500000000000016
0.028429388680762474,992.620430398247,91,7.379569601752989,1000,0.0,4.4,0.7812049768485169,0.22000000000000017
0.026048661858694765,992.5420494139436,91,7.457950586056428,1000,0.0,4.5,0.7838098430343864,0.22500000000000017
0.023859681447535086,992.4634298328257,91,7.536570167174341,1000,0.0,4.6,0.78619581117914,0.23000000000000018
0.02184825637137114,992.384591769144,91,7.615408230855969,1000,0.0,4.699999999999999,0.788380636816277,0.23500000000000018
0.020001036733514072,992.3055536950951,91,7.6944463049049325,1000,0.0,4.799999999999999,0.7903807404896285,0.24000000000000019
0.018305500780033287,992.2263325660383,91,7.773667433961696,1000,0.0,4.899999999999999,0.7922112905676318,0.2450000000000002
0.01674993424559104,992.1469439376391,91,7.853056062360914,1000,0.0,4.999999999999998,0.793886283992191,0.25000000000000017
0.015323403914707887,992.0674020752007,91,7.93259792479928,1000,0.0,5.099999999999998,0.7954186243836617,0.25500000000000017
0.01401572694051762,991.9877200554929,91,8.012279944507052,1000,0.0,5.1999999999999975,0.7968201970777135,0.2600000000000002
0.012828089759501834,991.9079097548876,91,8.092090245112418,1000,0.0,5.299999999999997,0.7981030060536637,0.2650000000000002
0.011729490513335725,991.827982159377,91,8.172017840622917,1000,0.0,5.399999999999997,0.7992759551049973,0.2700000000000002
0.01072342876064559,991.747947329579,91,8.252052670421024,1000,0.0,5.4999999999999964,0.8003482979810619,0.2750000000000002
0.009802366089651652,991.6678144761199,91,8.332185523880026,1000,0.0,5.599999999999996,0.8013285345900271,0.2800000000000002
0.008959335482914641,991.5875920293062,91,8.412407970693858,1000,0.0,5.699999999999996,0.8022244681383185,0.2850000000000002
0.008187905261329807,991.5072877034397,91,8.492712296560303,1000,0.0,5.799999999999995,0.8030432586644515,0.2900000000000002
0.007482144004515424,991.4269085561332,91,8.573091443866794,1000,0.0,5.899999999999995,0.8037914730649031,0.2950000000000002
0.006836586694363718,991.3464610429597,91,8.653538957040228,1000,0.0,5.999999999999995,0.8044751317343395,0.3000000000000002
0.006246202258447773,991.2659510677638,91,8.734048932236247,1000,0.0,6.099999999999994,0.8050997519601842,0.3050000000000002
0.0057063626325623415,991.1853840289414,91,8.814615971058592,1000,0.0,6.199999999999994,0.8056703882234405,0.3100000000000002
0.005212813415074285,991.1047648619849,91,8.895235138015087,1000,0.0,6.299999999999994,0.8061916695649479,0.3150000000000002
0.004761646148331154,991.0240980785669,91,8.975901921433065,1000,0.0,6.399999999999993,0.806667834179781,0.32000000000000023
0.004349272232674957,990.9433878024266,91,9.05661219757337,1000,0.0,6.499999999999993,0.8071027614030486,0.32500000000000023
0.003961072291122166,990.8626379155634,91,9.137362084436587,1000,0.0,6.5999999999999925,0.8074988686321608,0.33000000000000024
0.003617659721596223,990.7818518521029,91,9.218148147897018,1000,0.0,6.699999999999992,0.8078606346043204,0.33500000000000024
0.003303872728501451,990.7010327499153,91,9.298967250084736,1000,0.0,6.799999999999992,0.8081910218771706,0.34000000000000025
0.0030171800647594777,990.6201834759269,91,9.379816524073101,1000,0.0,6.8999999999999915,0.8084927398836466,0.34500000000000025
0.00275526267271441,990.5393066493118,91,9.460693350688192,1000,0.0,6.999999999999991,0.808768266150918,0.35000000000000026
0.0025159965808728836,990.4584046627309,91,9.541595337269094,1000,0.0,7.099999999999991,0.8090198658090053,0.35500000000000026
0.002297437063150637,990.3774797017794,91,9.622520298220625,1000,0.0,7.19999999999999,0.8092496095153203,0.36000000000000026
0.0020978039877348094,990.2965337627879,91,9.703466237212034,1000,0.0,7.29999999999999,0.8094593899140938,0.36500000000000027
0.0019154682830445687,990.2155686691137,91,9.784431330886273,1000,0.0,7.39999999999999,0.8096509367423983,0.3700000000000003
0.0017489394495618046,990.134586086045,91,9.865413913955008,1000,0.0,7.499999999999989,0.8098258306873545,0.3750000000000003
0.0015968540482763742,990.0535875344358,91,9.946412465564226,1000,0.0,7.599999999999989,0.8099855160921822,0.3800000000000003
0.0014579650989724512,989.9725744031756,91,10.027425596824434,1000,0.0,7.699999999999989,0.8101313126020794,0.3850000000000003
0.0011633440540867194,989.8915496384748,91,10.108450361525183,1000,0.0,7.799999999999988,0.8102476470074881,0.3900000000000003
0.0010621231456299253,989.8105142525426,91,10.189485747457388,1000,0.0,7.899999999999988,0.8103538593220511,0.3950000000000003
0.000969696631849688,989.7294691696441,91,10.270530830355911,1000,0.0,7.999999999999988,0.810450828985236,0.4000000000000003
0.0008853025422915156,989.6484152337201,91,10.351584766279858,1000,0.0,8.099999999999987,0.8105393592394652,0.4050000000000003
0.000808244573248949,989.5673532153504,91,10.432646784649537,1000,0.0,8.199999999999987,0.8106201836967901,0.4100000000000003
0.0007378864874246129,989.4862838181159,91,10.51371618188409,1000,0.0,8.299999999999986,0.8106939723455325,0.4150000000000003
0.0006736469813581881,989.4052076844115,91,10.594792315588457,1000,0.0,8.399999999999986,0.8107613370436684,0.4200000000000003
0.0006149949832132158,989.3241254007573,91,10.675874599242656,1000,0.0,8.499999999999986,0.8108228365419897,0.4250000000000003
0.0005614453462236831,989.2430375026497,91,10.756962497350317,1000,0.0,8.599999999999985,0.810878981076612,0.4300000000000003
0.0005125549056589805,989.161944478993,91,10.838055521007036,1000,0.0,8.699999999999985,0.810930236567178,0.43500000000000033
0.00046791886958160925,989.0808467761475,91,10.91915322385245,1000,0.0,8.799999999999985,0.8109770284541361,0.44000000000000034
0.00042716751593998957,988.999744801627,91,11.000255198373022,1000,0.0,8.899999999999984,0.8110197452057301,0.44500000000000034
0.00042902392558605236,988.9186385368671,91,11.08136146313285,1000,0.0,8.999999999999984,0.8110626475982886,0.45000000000000034
0.0003916560718616308,988.8375283555466,91,11.162471644453397,1000,0.0,9.099999999999984,0.8111018132054748,0.45500000000000035
0.0003575412209295353,988.7564145988139,91,11.243585401186154,1000,0.0,9.199999999999983,0.8111375673275678,0.46000000000000035
0.00032639647514143017,988.6752975781163,91,11.324702421883662,1000,0.0,9.299999999999983,0.8111702069750819,0.46500000000000036
0.00029796349111259,988.594177577784,91,11.405822422216081,1000,0.0,9.399999999999983,0.8112000033241932,0.47000000000000036
0.00027200635651837877,988.5130548573879,91,11.486945142612067,1000,0.0,9.499999999999982,0.811227203959845,0.47500000000000037
0.0002483096491486276,988.4319296538955,91,11.568070346104543,1000,0.0,9.599999999999982,0.81125203492476,0.48000000000000037
0.00022667666279730744,988.3508021836363,91,11.649197816363646,1000,0.0,9.699999999999982,0.8112747025910397,0.4850000000000004
0.0002069277858343915,988.2696726440994,91,11.730327355900608,1000,0.0,9.799999999999981,0.8112953953696231,0.4900000000000004
0.00018889901947451303,988.1885412155723,91,11.811458784427765,1000,0.0,9.89999999999998,0.8113142852715706,0.4950000000000004
0.00017244062383581135,988.1074080626388,91,11.89259193736116,1000,0.0,9.99999999999998,0.8113315293339541,0.5000000000000003
0.00015741588087607534,988.0262733355466,91,11.973726664453364,1000,0.0,10.09999999999998,0.8113472709220417,0.5050000000000003
0.00014369996420570246,987.9451371714548,91,12.054862828545211,1000,0.0,10.19999999999998,0.8113616409184623,0.5100000000000003
2.8881374125765657e-06,987.8640009784816,91,12.135999021518431,1000,0.0,10.29999999999998,0.8113619297322036,0.5150000000000003
2.636478794065953e-06,987.7828647591435,91,12.21713524085644,1000,0.0,10.399999999999979,0.811362193380083,0.5200000000000004
2.4067484378087644e-06,987.7017285157381,91,12.298271484261932,1000,0.0,10.499999999999979,0.8113624340549268,0.5250000000000004
2.197035638562698e-06,987.6205922503622,91,12.37940774963778,1000,0.0,10.599999999999978,0.8113626537584907,0.5300000000000004
2.0055961772046083e-06,987.5394559649304,91,12.46054403506959,1000,0.0,10.699999999999978,0.8113628543181084,0.5350000000000004
1.8308378144424695e-06,987.4583196611902,91,12.54168033880978,1000,0.0,10.799999999999978,0.8113630374018899,0.5400000000000004
1.6713070483370451e-06,987.3771833407369,91,12.622816659263039,1000,0.0,10.899999999999977,0.8113632045325947,0.5450000000000004
1.5256770262808102e-06,987.2960470050269,91,12.703952994973069,1000,0.0,10.999999999999977,0.8113633571002973,0.5500000000000004
1.3927365094509656e-06,987.2149106553895,91,12.785089344610464,1000,0.0,11.099999999999977,0.8113634963739482,0.5550000000000004
1.271379799326652e-06,987.1337742930383,91,12.866225706961657,1000,0.0,11.199999999999976,0.8113636235119281,0.5600000000000004
1.1605975414492532e-06,987.0526379190811,91,12.947362080918825,1000,0.0,11.299999999999976,0.8113637395716823,0.5650000000000004
1.059468330902866e-06,986.9715015345294,91,13.028498465470676,1000,0.0,11.399999999999975,0.8113638455185154,0.5700000000000004
-4.0510521678516524e-05,986.8903655550827,91,13.109634444917312,1000,0.0,11.499999999999975,0.8113597944663475,0.5750000000000004
-3.698061156613189e-05,986.8092299454422,91,13.19077005455783,1000,0.0,11.599999999999975,0.8113560964051909,0.5800000000000004
-3.375829780782165e-05,986.7280946733846,91,13.271905326615371,1000,0.0,11.699999999999974,0.8113527205754101,0.5850000000000004
-3.081677389368405e-05,986.6469597094948,91,13.353040290505174,1000,0.0,11.799999999999974,0.8113496388980207,0.5900000000000004
-2.8131569883957382e-05,986.5658250269207,91,13.434174973079276,1000,0.0,11.899999999999974,0.8113468257410323,0.5950000000000004
-2.5680348672538763e-05,986.4846906011501,91,13.515309398849892,1000,0.0,11.999999999999973,0.8113442577061651,0.6000000000000004
-2.344272002633541e-05,986.4035564098067,91,13.596443590193308,1000,0.0,12.099999999999973,0.8113419134341625,0.6050000000000004
-2.140007084948333e-05,986.322422432464,91,13.677577567536016,1000,0.0,12.199999999999973,0.8113397734270775,0.6100000000000004
-1.9535410253027735e-05,986.2412886504753,91,13.75871134952462,1000,0.0,12.299999999999972,0.8113378198860522,0.6150000000000004
-1.783322813900391e-05,986.160155046819,91,13.839844953180945,1000,0.0,12.399999999999972,0.8113360365632384,0.6200000000000004
-1.6279366117456974e-05,986.0790216059564,91,13.920978394043608,1000,0.0,12.499999999999972,0.8113344086266266,0.6250000000000004
-1.4860899681076724e-05,985.9978883137027,91,14.002111686297274,1000,0.0,12.599999999999971,0.8113329225366586,0.6300000000000004
0.0001060707342317612,985.9167539607417,91,14.083246039258283,1000,0.0,12.69999999999997,0.8113435296100817,0.6350000000000005
9.682857471607581e-05,985.835618639495,91,14.164381360505038,1000,0.0,12.79999999999997,0.8113532124675533,0.6400000000000005
8.839159792344542e-05,985.7544824343322,91,14.245517565667772,1000,0.0,12.89999999999997,0.8113620516273456,0.6450000000000005
8.068967341542077e-05,985.6733454222727,91,14.32665457772724,1000,0.0,12.99999999999997,0.8113701205946872,0.6500000000000005
7.365877609850361e-05,985.5922076736256,91,14.40779232637447,1000,0.0,13.09999999999997,0.811377486472297,0.6550000000000005
6.724045519972697e-05,985.5110692525737,91,14.48893074742625,1000,0.0,13.199999999999969,0.811384210517817,0.6600000000000005
6.138134934801958e-05,985.4299302177085,91,14.570069782291526,1000,0.0,13.299999999999969,0.8113903486527517,0.6650000000000005
5.6032743770706965e-05,985.3487906225157,91,14.65120937748424,1000,0.0,13.399999999999968,0.8113959519271288,0.6700000000000005
5.115016596090828e-05,985.2676505158214,91,14.732349484178611,1000,0.0,13.499999999999968,0.8114010669437248,0.6750000000000005
4.669301647976275e-05,985.1865099421968,91,14.813490057803149,1000,0.0,13.599999999999968,0.8114057362453728,0.6800000000000005
4.262423185184574e-05,985.10536894233,91,14.894631057670004,1000,0.0,13.699999999999967,0.811409998668558,0.6850000000000005
3.890997676743815e-05,985.0242275533634,91,14.975772446636627,1000,0.0,13.799999999999967,0.8114138896662347,0.6900000000000005
3.551936305136842e-05,984.9430858092031,91,15.056914190796881,1000,0.0,13.899999999999967,0.8114174416025399,0.6950000000000005
-0.00014075878493375268,984.8619454726307,91,15.138054527369286,1000,0.0,13.999999999999966,0.8114033657240466,0.7000000000000005
-0.0001284928771689948,984.7808064209871,91,15.21919357901292,1000,0.0,14.099999999999966,0.8113905164363296,0.7050000000000005
-0.00011729602270025606,984.6996685423037,91,15.300331457696325,1000,0.0,14.199999999999966,0.8113787868340596,0.7100000000000005
-0.0001070750156461939,984.6185317343704,91,15.381468265629575,1000,0.0,14.299999999999965,0.811368079332495,0.7150000000000005
-9.774478148141709e-05,984.537395903885,91,15.46260409611501,1000,0.0,14.399999999999965,0.8113583048543469,0.7200000000000005
-8.92276667908124e-05,984.4562609656763,91,15.543739034323776,1000,0.0,14.499999999999964,0.8113493820876678,0.7250000000000005
-8.145279120421908e-05,984.3751268419953,91,15.62487315800463,1000,0.0,14.599999999999964,0.8113412368085474,0.7300000000000005
-7.435545604437197e-05,984.293993461869,91,15.706006538130925,1000,0.0,14.699999999999964,0.811333801262943,0.7350000000000005
-6.787660470528202e-05,984.2128607605089,91,15.787139239491172,1000,0.0,14.799999999999963,0.8113270136024724,0.7400000000000005
-6.196233021825305e-05,984.1317286787719,91,15.868271321228116,1000,0.0,14.899999999999963,0.8113208173694506,0.7450000000000006
-5.6563425867353427e-05,984.0505971626692,91,15.949402837330803,1000,0.0,14.999999999999963,0.8113151610268639,0.7500000000000006
-5.163497507626696e-05,983.9694661629162,91,16.030533837083738,1000,0.0,15.099999999999962,0.8113099975293562,0.7550000000000006
-0.00014321192057888222,983.8883365952826,91,16.11166340471747,1000,0.0,15.199999999999962,0.8112956763372983,0.7600000000000006
-0.00013073377550644716,983.8072083349865,91,16.192791665013445,1000,0.0,15.299999999999962,0.8112826029597476,0.7650000000000006
-0.00011934305140728536,983.7260812681211,91,16.273918731878904,1000,0.0,15.399999999999961,0.811270668654607,0.7700000000000006
-0.00010894495179679567,983.6449552907052,91,16.355044709294848,1000,0.0,15.499999999999961,0.8112597741594273,0.7750000000000006
-9.945294946341393e-05,983.5638303078188,91,16.436169692181295,1000,0.0,15.59999999999996,0.8112498288644809,0.7800000000000006
-9.078806423502246e-05,983.4827062328129,91,16.517293767187102,1000,0.0,15.69999999999996,0.8112407500580574,0.7850000000000006
-8.287820397264177e-05,983.4015829865891,91,16.598417013410867,1000,0.0,15.79999999999996,0.8112324622376601,0.7900000000000006
