acceleration,altitude,balls,depth,seafloor,thruster,time,velocity,x_position
0.3210421463560736,994.9967895785364,91,5.003210421463561,1000,0.0,0.1,0.03210421463560736,0.005000000000000001
0.3204868033310949,994.9903742890396,91,5.0096257109604325,1000,0.0,0.2,0.06415289496871684,0.010000000000000002
0.31882461515378213,994.9807707533912,91,5.019229246608842,1000,0.0,0.30000000000000004,0.09603535648409506,0.015000000000000003
0.3160727970338369,994.9680064897724,91,5.03199351022759,1000,0.0,0.4,0.12764263618747876,0.020000000000000004
0.3122634758014707,994.9521195913957,91,5.047880408604352,1000,0.0,0.5,0.15886898376762582,0.025000000000000005
0.3074428807479783,994.9331582642114,91,5.066841735788595,1000,0.0,0.6,0.18961327184242366,0.030000000000000006
0.3016701363164866,994.911180235664,91,5.088819764336002,1000,0.0,0.7,0.21978028547407233,0.035
0.29501571116619,994.8862520500049,91,5.113747949995071,1000,0.0,0.7999999999999999,0.24928185659069133,0.04000000000000001
0.2875595935752763,994.8584482684101,91,5.141551731589893,1000,0.0,0.8999999999999999,0.27803781594821897,0.04500000000000001
0.2793892737747585,994.8278505940775,91,5.172149405922463,1000,0.0,0.9999999999999999,0.3059767433256948,0.05000000000000002
0.2705976190450034,994.7945469435546,91,5.205453056445482,1000,0.0,1.0999999999999999,0.3330365052301951,0.05500000000000002
0.2612807271907365,994.7586304857596,91,5.241369514240409,1000,0.0,1.2,0.35916457794926876,0.060000000000000026
0.2515358387489123,994.7201986695771,91,5.279801330422825,1000,0.0,1.3,0.38431816182416,0.06500000000000003
0.2414593787850112,994.679352259607,91,5.320647740393091,1000,0.0,1.4000000000000001,0.4084640997026611,0.07000000000000003
0.231145186483326,994.6361943977718,91,5.36380560222819,1000,0.0,1.5000000000000002,0.4315786183509937,0.07500000000000004
0.22068297616209798,994.5908297061751,91,5.409170293824911,1000,0.0,1.6000000000000003,0.4536469159672035,0.08000000000000004
0.21015705807506382,994.5433634439976,91,5.4566365560023815,1000,0.0,1.7000000000000004,0.4746626217747099,0.08500000000000005
0.19964533251324523,994.493900728495,91,5.506099271504985,1000,0.0,1.8000000000000005,0.49462715502603444,0.09000000000000005
0.18921855721003672,994.4425458274203,91,5.557454172579688,1000,0.0,1.9000000000000006,0.5135490107470381,0.09500000000000006
0.17893987654281832,994.3894015275802,91,5.61059847241982,1000,0.0,2.0000000000000004,0.5314429984013199,0.10000000000000006
0.16886459191308342,994.3345685818209,91,5.665431418179083,1000,0.0,2.1000000000000005,0.5483294575926283,0.10500000000000007
0.1590401461210654,994.2781452346004,91,5.721854765399557,1000,0.0,2.2000000000000006,0.5642334722047349,0.11000000000000007
0.14950629046316577,994.2202268244754,91,5.779773175524662,1000,0.0,2.3000000000000007,0.5791841012510515,0.11500000000000007
0.14029540144104183,994.1609054603358,91,5.839094539664178,1000,0.0,2.400000000000001,0.5932136413951556,0.12000000000000008
0.13143291404137708,994.1002697670559,91,5.899730232944107,1000,0.0,2.500000000000001,0.6063569327992934,0.12500000000000008
0.12293784012988934,994.0384046953747,91,5.961595304625335,1000,0.0,2.600000000000001,0.6186507168122823,0.1300000000000001
0.11482334319456788,993.9753913902615,91,6.024608609738508,1000,0.0,2.700000000000001,0.6301330511317391,0.1350000000000001
0.10705496066369297,993.9113075355417,91,6.088692464458319,1000,0.0,2.800000000000001,0.6408385471981084,0.1400000000000001
0.09972364768744206,993.846226444345,91,6.153773555655004,1000,0.0,2.9000000000000012,0.6508109119668526,0.1450000000000001
0.0927832886116758,993.7802175202622,91,6.219782479737806,1000,0.0,3.0000000000000013,0.6600892408280201,0.1500000000000001
0.08622971029379332,993.7133462990764,91,6.286653700923546,1000,0.0,3.1000000000000014,0.6687122118573995,0.1550000000000001
0.08005585935986405,993.6456745192971,91,6.354325480702885,1000,0.0,3.2000000000000015,0.6767177977933859,0.16000000000000011
0.07425231441313256,993.5772602163736,91,6.422739783626355,1000,0.0,3.3000000000000016,0.6841430292346992,0.16500000000000012
0.06880775393903275,993.5081578359108,91,6.491842164089215,1000,0.0,3.4000000000000017,0.6910238046286025,0.17000000000000012
0.06370937760850472,993.4384183616719,91,6.56158163832816,1000,0.0,3.5000000000000018,0.697394742389453,0.17500000000000013
0.058943280497635225,993.3680894546279,91,6.631910545372082,1000,0.0,3.600000000000002,0.7032890704392165,0.18000000000000013
0.05449478115497538,993.2972155997725,91,6.702784400227554,1000,0.0,3.700000000000002,0.7087385485547141,0.18500000000000014
0.05034870550085639,993.2258382578619,91,6.774161742138034,1000,0.0,3.800000000000002,0.7137734191047997,0.19000000000000014
0.04648962928417489,993.1539960196586,91,6.846003980341356,1000,0.0,3.900000000000002,0.7184223820332173,0.19500000000000015
0.042902082301514495,993.0817247606323,91,6.918275239367693,1000,0.0,4.000000000000002,0.7227125902633688,0.20000000000000015
0.0395707178495328,993.0090577944275,91,6.990942205572526,1000,0.0,4.100000000000001,0.7266696620483221,0.20500000000000015
0.03648045097894749,992.9360260237129,91,7.063973976287147,1000,0.0,4.200000000000001,0.7303177071462168,0.21000000000000016
0.03357112201280532,992.862658541778,91,7.137341458221897,1000,0.0,4.300000000000001,0.7336748193474973,0.21500000000000016
0.030922952062500886,992.7889818303228,91,7.2110181696772715,1000,0.0,4.4,0.7367671145537474,0.22000000000000017
0.028472930178545425,992.7150203895656,91,7.284979610434432,1000,0.0,4.5,0.739614407571602,0.22500000000000017
0.0262079109084331,992.6407968696993,91,7.359203130300676,1000,0.0,4.6,0.7422351986624454,0.23000000000000018
0.024115352110892153,992.5663321963119,91,7.43366780368803,1000,0.0,4.699999999999999,0.7446467338735345,0.23500000000000018
0.022183333841898422,992.4916456895862,91,7.508354310413802,1000,0.0,4.799999999999999,0.7468650672577244,0.24000000000000019
0.0204005665975797,992.4167551771944,91,7.5832448228055505,1000,0.0,4.899999999999999,0.7489051239174823,0.2450000000000002
0.018756390839805757,992.3416771008943,91,7.658322899105697,1000,0.0,4.999999999999998,0.7507807630014629,0.25000000000000017
0.017240769486539936,992.2664266168993,91,7.733573383100708,1000,0.0,5.099999999999998,0.7525048399501169,0.25500000000000017
0.015844274822937106,992.1910176901561,91,7.808982309843949,1000,0.0,5.1999999999999975,0.7540892674324106,0.2600000000000002
0.014558071082532336,992.115463182702,91,7.884536817298016,1000,0.0,5.299999999999997,0.7555450745406638,0.2650000000000002
0.013373893761394008,992.0397749363103,91,7.960225063689696,1000,0.0,5.399999999999997,0.7568824639168031,0.2700000000000002
0.01228402656166417,991.963963849653,91,8.036036150346993,1000,0.0,5.4999999999999964,0.7581108665729696,0.2750000000000002
0.01121965592135591,991.8880405664365,91,8.111959433563504,1000,0.0,5.599999999999996,0.7592328321651052,0.2800000000000002
0.010302364415419084,991.8120142595758,91,8.18798574042417,1000,0.0,5.699999999999996,0.760263068606647,0.2850000000000002
0.009458873695974715,991.7358933639782,91,8.264106636021793,1000,0.0,5.799999999999995,0.7612089559762445,0.2900000000000002
0.008683435363402556,991.6596856340269,91,8.340314365973052,1000,0.0,5.899999999999995,0.7620772995125847,0.2950000000000002
0.007970718610191352,991.5833981968896,91,8.416601803110412,1000,0.0,5.999999999999995,0.7628743713736039,0.3000000000000002
0.007315784777630331,991.5070376019045,91,8.492962398095548,1000,0.0,6.099999999999994,0.763605949851367,0.3050000000000002
0.006714062627692106,991.430609866293,91,8.569390133706962,1000,0.0,6.199999999999994,0.7642773561141362,0.3100000000000002
0.0061613244762216,991.3541205174369,91,8.645879482563139,1000,0.0,6.299999999999994,0.7648934885617583,0.3150000000000002
0.0056536632925381905,991.2775746319478,91,8.72242536805224,1000,0.0,6.399999999999993,0.7654588548910122,0.32000000000000023
0.005187470836700359,991.2009768717503,91,8.79902312824971,1000,0.0,6.499999999999993,0.7659776019746822,0.32500000000000023
0.00475941687797415,991.124331517384,91,8.875668482615957,1000,0.0,6.5999999999999925,0.7664535436624796,0.33000000000000024
0.004366429515588866,991.0476424987227,91,8.95235750127736,1000,0.0,6.699999999999992,0.7668901866140385,0.33500000000000024
0.004005676604865496,990.9709134232952,91,9.029086576704813,1000,0.0,6.799999999999992,0.7672907542745251,0.34000000000000025
0.0036307885972108587,990.8941480399818,91,9.105851960018239,1000,0.0,6.8999999999999915,0.7676538331342462,0.34500000000000025
0.003330499564703709,990.8173493516726,91,9.18265064832731,1000,0.0,6.999999999999991,0.7679868830907165,0.35000000000000026
0.0030549213984829627,990.7405201141496,91,9.259479885850368,1000,0.0,7.099999999999991,0.7682923752305648,0.35500000000000026
0.002802040507069404,990.6636628562215,91,9.336337143778495,1000,0.0,7.19999999999999,0.7685725792812718,0.36000000000000026
0.0025700042118327387,990.5867798982513,91,9.41322010174874,1000,0.0,7.29999999999999,0.768829579702455,0.36500000000000027
0.002357108395158738,990.5098733691971,91,9.490126630802937,1000,0.0,7.39999999999999,0.7690652905419709,0.3700000000000003
0.002161786014451843,990.4329452222827,91,9.567054777717278,1000,0.0,7.499999999999989,0.7692814691434161,0.3750000000000003
0.001982596435058033,990.355997249404,91,9.64400275059597,1000,0.0,7.599999999999989,0.769479728786922,0.3800000000000003
0.0018182155352357398,990.27903109437,91,9.720968905630015,1000,0.0,7.699999999999989,0.7696615503404455,0.3850000000000003
0.0016674265369313575,990.2020482650705,91,9.797951734929429,1000,0.0,7.799999999999988,0.7698282929941386,0.3900000000000003
0.0015291115171789111,990.125050144656,91,9.874949855344015,1000,0.0,7.899999999999988,0.7699812041458565,0.3950000000000003
0.0014022435563529894,990.0480380018058,91,9.951961998194164,1000,0.0,7.999999999999988,0.7701214285014918,0.4000000000000003
0.0012858794811459043,989.9710130001608,91,10.028986999839125,1000,0.0,8.099999999999987,0.7702500164496063,0.4050000000000003
0.0011436129055631605,989.8939765623869,91,10.10602343761314,1000,0.0,8.199999999999987,0.7703643777401626,0.4100000000000003
0.0010486792119149021,989.8169296378207,91,10.183070362179276,1000,0.0,8.299999999999986,0.7704692456613541,0.4150000000000003
0.0009616137746361392,989.7398730971169,91,10.260126902883158,1000,0.0,8.399999999999986,0.7705654070388177,0.4200000000000003
0.0008817664332993036,989.6628077387486,91,10.337192261251372,1000,0.0,8.499999999999986,0.7706535836821476,0.4250000000000003
0.0008085404362705615,989.5857342949761,91,10.41426570502395,1000,0.0,8.599999999999985,0.7707344377257747,0.4300000000000003
0.0007413881035333592,989.5086534373224,91,10.491346562677563,1000,0.0,8.699999999999985,0.770808576536128,0.43500000000000033
0.0006798068336775279,989.4315657816005,91,10.568434218399513,1000,0.0,8.799999999999985,0.7708765572194958,0.44000000000000034
0.0006233354290447776,989.3544718925242,91,10.645528107475753,1000,0.0,8.899999999999984,0.7709388907624003,0.44500000000000034
0.0005715507147705109,989.2773722879408,91,10.722627712059142,1000,0.0,8.999999999999984,0.7709960458338774,0.45000000000000034
0.0005240644291341181,989.2002674427132,91,10.79973255728682,1000,0.0,9.099999999999984,0.7710484522767908,0.45500000000000035
0.00048052036421491513,989.1231577922819,91,10.876842207718141,1000,0.0,9.199999999999983,0.7710965043132122,0.46000000000000035
0.00044059173735208835,989.0460437359332,91,10.953956264066836,1000,0.0,9.299999999999983,0.7711405634869474,0.46500000000000036
0.0004039787753204854,988.9689256397967,91,11.031074360203284,1000,0.0,9.399999999999983,0.7711809613644794,0.47000000000000036
0.0003334181734947327,988.8918042094786,91,11.108195790521467,1000,0.0,9.499999999999982,0.7712143031818289,0.47500000000000037
0.00030570833666183136,988.814679722077,91,11.185320277923017,1000,0.0,9.599999999999982,0.7712448740154951,0.48000000000000037
0.0002803003660675036,988.7375524316718,91,11.262447568328227,1000,0.0,9.699999999999982,0.7712729040521019,0.4850000000000004
0.0002570032126135278,988.6604225712344,91,11.339577428765564,1000,0.0,9.799999999999981,0.7712986043733633,0.4900000000000004
0.00023564165705651011,988.5832903543806,91,11.41670964561947,1000,0.0,9.89999999999998,0.771322168539069,0.4950000000000004
0.00021605500264879857,988.5061559769766,91,11.493844023023403,1000,0.0,9.99999999999998,0.7713437740393339,0.5000000000000003
0.00019809587507146526,988.4290196186139,91,11.570980381386088,1000,0.0,10.09999999999998,0.771363583626841,0.5050000000000003
0.0001816291209624481,988.35188144396,91,11.648118556039982,1000,0.0,10.19999999999998,0.7713817465389372,0.5100000000000003
0.00016653079703214712,988.2747416039981,91,11.725258396001847,1000,0.0,10.29999999999998,0.7713983996186404,0.5150000000000003
0.00015268724239144067,988.1976002371639,91,11.802399762836135,1000,0.0,10.399999999999979,0.7714136683428796,0.5200000000000004
0.00013999422730880763,988.1204574703874,91,11.879542529612696,1000,0.0,10.499999999999979,0.7714276677656104,0.5250000000000004
0.00012835617215273327,988.043313420049,91,11.95668657995098,1000,0.0,10.599999999999978,0.7714405033828258,0.5300000000000004
0.00011768543077866649,987.9661681928565,91,12.033831807143569,1000,0.0,10.699999999999978,0.7714522719259036,0.5350000000000004
4.9494669349202615e-05,987.8890224707171,91,12.110977529282852,1000,0.0,10.799999999999978,0.7714572213928386,0.5400000000000004
4.5379852765764145e-05,987.8118762947794,91,12.188123705220663,1000,0.0,10.899999999999977,0.7714617593781151,0.5450000000000004
4.1607104682317776e-05,987.7347297027704,91,12.265270297229522,1000,0.0,10.999999999999977,0.7714659200885834,0.5500000000000004
3.8147992325872785e-05,987.6575827292817,91,12.342417270718304,1000,0.0,11.099999999999977,0.771469734887816,0.5550000000000004
3.497644566971709e-05,987.5804354060284,91,12.419564593971542,1000,0.0,11.199999999999976,0.771473232532383,0.5600000000000004
3.206856118424072e-05,987.5032877620896,91,12.496712237910392,1000,0.0,11.299999999999976,0.7714764393885014,0.5650000000000004
2.9402421873658346e-05,987.4261398241265,91,12.573860175873461,1000,0.0,11.399999999999975,0.7714793796306888,0.5700000000000004
2.6957932249060432e-05,987.3489916165842,91,12.651008383415853,1000,0.0,11.499999999999975,0.7714820754239137,0.5750000000000004
2.4716666999602592e-05,987.271843161875,91,12.728156838124914,1000,0.0,11.599999999999975,0.7714845470906136,0.5800000000000004
2.2661732227851796e-05,987.1946944805487,91,12.805305519451297,1000,0.0,11.699999999999974,0.7714868132638364,0.5850000000000004
2.0777638205915603e-05,987.117545591446,91,12.882454408554063,1000,0.0,11.799999999999974,0.7714888910276569,0.5900000000000004
1.9050182698500326e-05,987.0403965118413,91,12.959603488158656,1000,0.0,11.899999999999974,0.7714907960459267,0.5950000000000004
1.7466343975457216e-05,986.9632472575734,91,13.036752742426689,1000,0.0,11.999999999999973,0.7714925426803243,0.6000000000000004
-3.0763520340621e-05,986.8860983109405,91,13.113901689059517,1000,0.0,12.099999999999973,0.7714894663282902,0.6050000000000004
-2.8205814663732817e-05,986.8089496463658,91,13.1910503536342,1000,0.0,12.199999999999973,0.7714866457468238,0.6100000000000004
-2.586076781029786e-05,986.7318012403988,91,13.268198759601205,1000,0.0,12.299999999999972,0.7714840596700427,0.6150000000000004
-2.3710696968431223e-05,986.6546530715387,91,13.34534692846124,1000,0.0,12.399999999999972,0.7714816886003459,0.6200000000000004
-2.1739389898990613e-05,986.5775051200726,91,13.422494879927376,1000,0.0,12.499999999999972,0.771479514661356,0.6250000000000004
-1.9931982600250907e-05,986.5003573679263,91,13.499642632073686,1000,0.0,12.599999999999971,0.771477521463096,0.6300000000000004
-1.8274847156106344e-05,986.4232097985284,91,13.576790201471523,1000,0.0,12.69999999999997,0.7714756939783805,0.6350000000000005
-1.6755488917808838e-05,986.3460623966855,91,13.653937603314471,1000,0.0,12.79999999999997,0.7714740184294887,0.6400000000000005
-1.5362452242399836e-05,986.2689151484672,91,13.731084851532898,1000,0.0,12.89999999999997,0.7714724821842645,0.6450000000000005
-1.4085234074893283e-05,986.191768041101,91,13.808231958898984,1000,0.0,12.99999999999997,0.771471073660857,0.6500000000000005
-1.2914204721260352e-05,986.114621062877,91,13.885378937123022,1000,0.0,13.09999999999997,0.7714697822403849,0.6550000000000005
-1.1840535212928859e-05,986.0374742030583,91,13.962525796941708,1000,0.0,13.199999999999969,0.7714685981868635,0.6600000000000005
-1.0856130714155655e-05,985.9603274518009,91,14.039672548199087,1000,0.0,13.299999999999969,0.7714675125737921,0.6650000000000005
-5.17735136234262e-05,985.8831812182787,91,14.11681878172133,1000,0.0,13.399999999999968,0.7714623352224298,0.6700000000000005
-4.746914610753056e-05,985.8060354594479,91,14.19396454055211,1000,0.0,13.499999999999968,0.7714575883078191,0.6750000000000005
-4.3522662240008864e-05,985.7288901358437,91,14.271109864156271,1000,0.0,13.599999999999968,0.7714532360415951,0.6800000000000005
-3.990430198831939e-05,985.6517452112826,91,14.34825478871741,1000,0.0,13.699999999999967,0.7714492456113963,0.6850000000000005
-3.6586780677910255e-05,985.5746006525893,91,14.425399347410742,1000,0.0,13.799999999999967,0.7714455869333284,0.6900000000000005
-3.3545082996529345e-05,985.4974564293468,91,14.502543570653245,1000,0.0,13.899999999999967,0.7714422324250287,0.6950000000000005
-3.0756274156582244e-05,985.420312513667,91,14.579687486333006,1000,0.0,13.999999999999966,0.7714391567976131,0.7000000000000005
-2.8199326785399927e-05,985.3431688799805,91,14.656831120019499,1000,0.0,14.099999999999966,0.7714363368649345,0.7050000000000005
-2.5854962230543766e-05,985.2660255048436,91,14.73397449515637,1000,0.0,14.199999999999966,0.7714337513687115,0.7100000000000005
-2.3705505077814947e-05,985.1888823667618,91,14.81111763323819,1000,0.0,14.299999999999965,0.7714313808182037,0.7150000000000005
-2.1734749780678776e-05,985.1117394460275,91,14.888260553972513,1000,0.0,14.399999999999965,0.7714292073432256,0.7200000000000005
-1.992783839155964e-05,985.0345967245715,91,14.965403275428452,1000,0.0,14.499999999999964,0.7714272145593865,0.7250000000000005
-1.8271148469689984e-05,984.9574541858271,91,15.042545814172906,1000,0.0,14.599999999999964,0.7714253874445395,0.7300000000000005
-7.051727795472529e-05,984.8803123522554,91,15.11968764774458,1000,0.0,14.699999999999964,0.771418335716744,0.7350000000000005
-6.465487882591347e-05,984.8031711652326,91,15.196828834767466,1000,0.0,14.799999999999963,0.7714118702288614,0.7400000000000005
-5.927989278698847e-05,984.7260305710086,91,15.273969428991425,1000,0.0,14.899999999999963,0.7714059422395827,0.7450000000000006
-5.4351787710050496e-05,984.6488905203025,91,15.351109479697506,1000,0.0,14.999999999999963,0.7714005070608116,0.7500000000000006
-4.983340321940383e-05,984.5717509679305,91,15.428249032069555,1000,0.0,15.099999999999962,0.7713955237204897,0.7550000000000006
-4.5690670014718686e-05,984.494611872465,91,15.505388127534903,1000,0.0,15.199999999999962,0.7713909546534882,0.7600000000000006
-4.189235258884229e-05,984.4174731959233,91,15.582526804076727,1000,0.0,15.299999999999962,0.7713867654182293,0.7650000000000006
-3.840981338591203e-05,984.3403349034796,91,15.659665096520415,1000,0.0,15.399999999999961,0.7713829244368907,0.7700000000000006
-3.521679660893232e-05,984.2631969632039,91,15.736803036796138,1000,0.0,15.499999999999961,0.7713794027572298,0.7750000000000006
-3.228923003539107e-05,984.1860593458205,91,15.81394065417956,1000,0.0,15.59999999999996,0.7713761738342263,0.7800000000000006
-2.9605043340051856e-05,984.1089220244875,91,15.89107797551255,1000,0.0,15.69999999999996,0.7713732133298923,0.7850000000000006
-2.714400154528081e-05,984.0317849745945,91,15.968215025405524,1000,0.0,15.79999999999996,0.7713704989297377,0.7900000000000006
