acceleration,altitude,balls,depth,seafloor,thruster,time,velocity,x_position
0.3232415265267219,994.9967675847347,91,5.003232415265267,1000,0.0,0.1,0.03232415265267219,0.005000000000000001
0.3226786788919265,994.9903083826805,91,5.0096916173194534,1000,0.0,0.2,0.06459202054186483,0.010000000000000002
0.3209940545379404,994.980639240081,91,5.019360759919019,1000,0.0,0.30000000000000004,0.09669142599565887,0.015000000000000003
0.3182052162564232,994.9677880453188,91,5.0322119546811495,1000,0.0,0.4,0.1285119476213012,0.020000000000000004
0.31434493690298804,994.9517934011877,91,5.0482065988123095,1000,0.0,0.5,0.1599464413116,0.025000000000000005
0.3094603685593246,994.932704153371,91,5.0672958466290625,1000,0.0,0.6,0.19089247816753246,0.030000000000000006
0.3036118031613953,994.9105787875226,91,5.08942121247743,1000,0.0,0.7,0.221253658483672,0.035
0.29687108092499465,994.885484710865,91,5.114515289135047,1000,0.0,0.7999999999999999,0.2509407665761715,0.04000000000000001
0.28931971881717816,994.8574974370192,91,5.1425025629808365,1000,0.0,0.8999999999999999,0.2798727384578893,0.04500000000000001
0.2810468422364556,994.826699694751,91,5.17330030524899,1000,0.0,0.9999999999999999,0.30797742268153483,0.05000000000000002
0.27214700838699146,994.793180482399,91,5.206819517601013,1000,0.0,1.0999999999999999,0.335192123520234,0.05500000000000002
0.2627180094997615,994.757034089952,91,5.242965910048034,1000,0.0,1.2,0.36146392447021014,0.060000000000000026
0.25285873850237084,994.7183591101199,91,5.281640889880079,1000,0.0,1.3,0.3867497983204472,0.06500000000000003
0.24266718981772903,994.6772574583897,91,5.322742541610301,1000,0.0,1.4000000000000001,0.4110165173022201,0.07000000000000003
0.23223865481591754,994.6338334201113,91,5.366166579888683,1000,0.0,1.5000000000000002,0.4342403827838119,0.07500000000000004
0.22166415633168834,994.5881927402696,91,5.411807259730381,1000,0.0,1.6000000000000003,0.45640679841698073,0.08000000000000004
0.21102915087009036,994.5404417689192,91,5.45955823108078,1000,0.0,1.7000000000000004,0.47750971350398974,0.08500000000000005
0.2004125118101511,994.4906866724507,91,5.50931332754928,1000,0.0,1.8000000000000005,0.49755096468500487,0.09000000000000005
0.18988579302447411,994.439032718052,91,5.560967281948025,1000,0.0,1.9000000000000006,0.5165395439874523,0.09500000000000006
0.1795127605403841,994.3855836360478,91,5.614416363952174,1000,0.0,2.0000000000000004,0.5344908200414907,0.10000000000000006
0.16934917057719368,994.3304410623379,91,5.669558937662095,1000,0.0,2.1000000000000005,0.5514257370992101,0.10500000000000007
0.15944276564491525,994.2737040609716,91,5.726295939028465,1000,0.0,2.2000000000000006,0.5673700136637015,0.11000000000000007
0.14983345630236916,994.2154687250421,91,5.784531274957859,1000,0.0,2.3000000000000007,0.5823533592939385,0.11500000000000007
0.14055365439985307,994.1558278525688,91,5.844172147431251,1000,0.0,2.400000000000001,0.5964087247339238,0.12000000000000008
0.13162872381592872,994.0948706928572,91,5.905129307142802,1000,0.0,2.500000000000001,0.6095715971155167,0.12500000000000008
0.12307751642599879,994.0326827579814,91,5.9673172420186145,1000,0.0,2.600000000000001,0.6218793487581166,0.1300000000000001
0.11491296388859032,993.9693456934667,91,6.030654306533312,1000,0.0,2.700000000000001,0.6333706451469756,0.1350000000000001
0.10714269940502681,993.904937201958,91,6.0950627980420595,1000,0.0,2.800000000000001,0.6440849150874783,0.1400000000000001
0.09976968754958146,993.8395310135737,91,6.160468986426303,1000,0.0,2.9000000000000012,0.6540618838424365,0.1450000000000001
0.09279284429229367,993.7731968967465,91,6.22680310325347,1000,0.0,3.0000000000000013,0.6633411682716658,0.1500000000000001
0.08620763322371203,993.7060007035872,91,6.293999296412874,1000,0.0,3.1000000000000014,0.6719619315940369,0.1550000000000001
0.08000662758225381,993.6380044441519,91,6.3619955558481,1000,0.0,3.2000000000000015,0.6799625943522624,0.16000000000000011
0.07418003088035673,993.5692663844079,91,6.43073361559213,1000,0.0,3.3000000000000016,0.687380597440298,0.16500000000000012
0.06871615167302018,993.4998411631472,91,6.50015883685289,1000,0.0,3.4000000000000017,0.6942522126076001,0.17000000000000012
0.0636018302976608,993.4297799235834,91,6.570220076416627,1000,0.0,3.5000000000000018,0.7006123956373661,0.17500000000000013
0.058822817251606825,993.3591304558471,91,6.6408695441528796,1000,0.0,3.600000000000002,0.7064946773625268,0.18000000000000013
0.05436410429647091,993.2879373470679,91,6.712062652932097,1000,0.0,3.700000000000002,0.7119310877921738,0.18500000000000014
0.050210210432300416,993.2162421361844,91,6.783757863815637,1000,0.0,3.800000000000002,0.7169521088354038,0.19000000000000014
0.04634542561971444,993.1440834710446,91,6.855916528955375,1000,0.0,3.900000000000002,0.7215866513973753,0.19500000000000015
0.042754015597354464,993.0714972657489,91,6.9285027342510865,1000,0.0,4.000000000000002,0.7258620529571108,0.20000000000000015
0.03942039139498816,992.9985168565393,91,7.001483143460748,1000,0.0,4.100000000000001,0.7298040920966097,0.20500000000000015
0.03632924722554555,992.9251731548574,91,7.074826845142664,1000,0.0,4.200000000000001,0.7334370168191643,0.21000000000000016
0.033465670392971755,992.8514947964715,91,7.148505203528511,1000,0.0,4.300000000000001,0.7367835838584614,0.21500000000000016
0.030815226712024402,992.7775082858185,91,7.222491714181477,1000,0.0,4.4,0.7398651065296639,0.22000000000000017
0.02836402473021021,992.7032381349183,91,7.296761865081746,1000,0.0,4.5,0.7427015090026848,0.22500000000000017
0.02609876179467782,992.6287069964001,91,7.371293003599961,1000,0.0,4.6,0.7453113851821526,0.23000000000000018
0.02400675473682595,992.5539357903344,91,7.446064209665544,1000,0.0,4.699999999999999,0.7477120606558352,0.23500000000000018
0.022075957669102083,992.4789438246922,91,7.521056175307819,1000,0.0,4.799999999999999,0.7499196564227454,0.24000000000000019
0.020294969112690835,992.4037489093588,91,7.59625109064122,1000,0.0,4.899999999999999,0.7519491533340145,0.2450000000000002
0.018653030409228777,992.3283674637213,91,7.6716325362787146,1000,0.0,4.999999999999998,0.7538144563749374,0.25000000000000017
0.017140017119535868,992.2528146179126,91,7.7471853820874035,1000,0.0,5.099999999999998,0.755528458086891,0.25500000000000017
0.015746424880866767,992.1771043078551,91,7.822895692144901,1000,0.0,5.1999999999999975,0.7571031005749776,0.2600000000000002
0.014463350983097641,992.1012493642878,91,7.89875063571223,1000,0.0,5.299999999999997,0.7585494356732874,0.2650000000000002
0.013282472734157927,992.0252615959931,91,7.9747384040069,1000,0.0,5.399999999999997,0.7598776829467031,0.2700000000000002
0.012196023515657179,991.9491518674632,91,8.050848132536727,1000,0.0,5.4999999999999964,0.7610972852982688,0.2750000000000002
0.011196767280224127,991.8729301712607,91,8.127069828739355,1000,0.0,5.599999999999996,0.7622169620262912,0.2800000000000002
0.010277972111366383,991.7966056953369,91,8.203394304663098,1000,0.0,5.699999999999996,0.7632447592374278,0.2850000000000002
0.009433383353238968,991.7201868855797,91,8.279813114420373,1000,0.0,5.799999999999995,0.7641880975727517,0.2900000000000002
0.00865719672003435,991.6436815038552,91,8.356318496144848,1000,0.0,5.899999999999995,0.7650538172447552,0.2950000000000002
0.007944031711188244,991.5670966818136,91,8.432903318186435,1000,0.0,5.999999999999995,0.765848220415874,0.3000000000000002
0.00728890558768905,991.4904389707161,91,8.5095610292839,1000,0.0,6.099999999999994,0.7665771109746429,0.3050000000000002
0.006687208104999607,991.4137143875375,91,8.586285612462413,1000,0.0,6.199999999999994,0.7672458317851428,0.3100000000000002
0.006134677148061462,991.3369284575876,91,8.663071542412409,1000,0.0,6.299999999999994,0.767859299499949,0.3150000000000002
0.0056273753722851415,991.2600862538839,91,8.739913746116127,1000,0.0,6.399999999999993,0.7684220370371775,0.32000000000000023
0.005161667920169679,991.183192433501,91,8.816807566499046,1000,0.0,6.499999999999993,0.7689382038291944,0.32500000000000023
0.004734201255211837,991.1062512711055,91,8.893748728894517,1000,0.0,6.5999999999999925,0.7694116239547156,0.33000000000000024
0.004341883132136096,991.0292666898787,91,8.97073331012131,1000,0.0,6.699999999999992,0.7698458122679293,0.33500000000000024
0.003981863704377098,990.9522422900149,91,9.047757709985145,1000,0.0,6.799999999999992,0.770243998638367,0.34000000000000025
0.0036515177554834657,990.8751813749734,91,9.124818625026537,1000,0.0,6.8999999999999915,0.7706091504139153,0.34500000000000025
0.0033484280300519788,990.7980869756518,91,9.20191302434823,1000,0.0,6.999999999999991,0.7709439932169205,0.35000000000000026
0.003070369631413441,990.7209618726338,91,9.279038127366235,1000,0.0,7.099999999999991,0.7712510301800619,0.35500000000000026
0.002815295447124144,990.6438086166613,91,9.356191383338713,1000,0.0,7.19999999999999,0.7715325597247743,0.36000000000000026
0.0025813225589613326,990.5666295474632,91,9.43337045253678,1000,0.0,7.29999999999999,0.7717906919806704,0.36500000000000027
0.002366719591261446,990.4894268110693,91,9.51057318893076,1000,0.0,7.39999999999999,0.7720273639397965,0.3700000000000003
0.0021698949497780035,990.4122023757258,91,9.587797624274238,1000,0.0,7.499999999999989,0.7722443534347744,0.3750000000000003
0.0019893859025394956,990.3349580465233,91,9.66504195347674,1000,0.0,7.599999999999989,0.7724432920250284,0.3800000000000003
0.0018238484542592837,990.2576954788362,91,9.742304521163785,1000,0.0,7.699999999999989,0.7726256768704542,0.3850000000000003
0.0016720479665140561,990.1804161906695,91,9.819583809330496,1000,0.0,7.799999999999988,0.7727928816671057,0.3900000000000003
0.001532850477033148,990.103121573998,91,9.896878426001976,1000,0.0,7.899999999999988,0.772946166714809,0.3950000000000003
0.0014052146729132094,990.0258129051798,91,9.974187094820186,1000,0.0,7.999999999999988,0.7730866881821002,0.4000000000000003
0.0012881844742858545,989.9484913545168,91,10.051508645483139,1000,0.0,8.099999999999987,0.7732155066295289,0.4050000000000003
0.0011589081898182726,989.871158214772,91,10.12884178522799,1000,0.0,8.199999999999987,0.7733313974485106,0.4100000000000003
0.0010623587745093898,989.7938144514394,91,10.206185548560587,1000,0.0,8.299999999999986,0.7734376333259616,0.4150000000000003
0.0009738402436021778,989.7164609497044,91,10.28353905029562,1000,0.0,8.399999999999986,0.7735350173503218,0.4200000000000003
0.0008926866279864783,989.639098521103,91,10.360901478896931,1000,0.0,8.499999999999986,0.7736242860131205,0.4250000000000003
0.0008182868597529462,989.5617279096332,91,10.43827209036684,1000,0.0,8.599999999999985,0.7737061146990958,0.4300000000000003
0.000750080298295167,989.4843497973602,91,10.515650202639733,1000,0.0,8.699999999999985,0.7737811227289253,0.43500000000000033
0.0006875526126197508,989.4069648095613,91,10.593035190438751,1000,0.0,8.799999999999985,0.7738498779901872,0.44000000000000034
0.0006302319928625602,989.3295735194423,91,10.6704264805577,1000,0.0,8.899999999999984,0.7739129011894735,0.44500000000000034
0.0005776856658284491,989.2521764524666,91,10.747823547533304,1000,0.0,8.999999999999984,0.7739706697560563,0.45000000000000034
0.0005295166911123377,989.1747740903241,91,10.82522590967582,1000,0.0,9.099999999999984,0.7740236214251676,0.45500000000000035
0.000485361016009421,989.0973668745715,91,10.902633125428498,1000,0.0,9.199999999999983,0.7740721575267685,0.46000000000000035
0.0004448847689841634,989.0199552099712,91,10.980044790028865,1000,0.0,9.299999999999983,0.7741166460036669,0.46500000000000036
0.00040778177293787214,988.942539467553,91,11.05746053244696,1000,0.0,9.399999999999983,0.7741574241809607,0.47000000000000036
0.0003265056110733322,988.8651204600789,91,11.134879539921167,1000,0.0,9.499999999999982,0.774190074742068,0.47500000000000037
0.0002992724096141148,988.7876984598805,91,11.21230154011947,1000,0.0,9.599999999999982,0.7742200019830294,0.48000000000000037
0.00027430966796140947,988.7102737165856,91,11.289726283414451,1000,0.0,9.699999999999982,0.7742474329498256,0.4850000000000004
0.0002514282568826191,988.632846459008,91,11.367153540992001,1000,0.0,9.799999999999981,0.7742725757755138,0.4900000000000004
0.00023045477580513435,988.5554168968827,91,11.444583103117312,1000,0.0,9.89999999999998,0.7742956212530943,0.4950000000000004
0.00021123024889237873,988.4779852224549,91,11.52201477754511,1000,0.0,9.99999999999998,0.7743167442779835,0.5000000000000003
0.00019360892855633995,988.4005516119378,91,11.599448388062193,1000,0.0,10.09999999999998,0.7743361051708391,0.5050000000000003
0.00017745719765923233,988.3231162268487,91,11.676883773151253,1000,0.0,10.19999999999998,0.7743538508906049,0.5100000000000003
0.00016265256235395109,988.2456792152341,91,11.754320784765937,1000,0.0,10.29999999999998,0.7743701161468404,0.5150000000000003
0.0001490827281542572,988.1682407127921,91,11.831759287207904,1000,0.0,10.399999999999979,0.7743850244196558,0.5200000000000004
0.00013664475242002207,988.0908008439026,91,11.909199156097394,1000,0.0,10.499999999999979,0.7743986888948978,0.5250000000000004
0.00012524426699016727,988.0133597225705,91,11.986640277429553,1000,0.0,10.599999999999978,0.7744112133215968,0.5300000000000004
0.00011479476520085536,987.9359174532906,91,12.064082546709365,1000,0.0,10.699999999999978,0.7744226927981169,0.5350000000000004
-2.2344808916750476e-05,987.858475407459,91,12.141524592541087,1000,0.0,10.799999999999978,0.7744204583172253,0.5400000000000004
-2.0480450770240406e-05,987.7810335664317,91,12.218966433568301,1000,0.0,10.899999999999977,0.7744184102721483,0.5450000000000004
-1.8771651656968906e-05,987.703591913121,91,12.296408086879,1000,0.0,10.999999999999977,0.7744165331069827,0.5500000000000004
-1.7205431226873615e-05,987.6261504318646,91,12.373849568135386,1000,0.0,11.099999999999977,0.77441481256386,0.5550000000000004
-1.576989237322539e-05,987.5487091083072,91,12.451290891692848,1000,0.0,11.199999999999976,0.7744132355746227,0.5600000000000004
-1.4454130813827021e-05,987.471267929291,91,12.528732070709001,1000,0.0,11.299999999999976,0.7744117901615414,0.5650000000000004
-1.324815222262555e-05,987.3938268827563,91,12.606173117243634,1000,0.0,11.399999999999975,0.7744104653463191,0.5700000000000004
-1.2142796280896606e-05,987.3163859576497,91,12.683614042350303,1000,0.0,11.499999999999975,0.774409251066691,0.5750000000000004
-1.1129667069486262e-05,987.2389451438397,91,12.761054856160301,1000,0.0,11.599999999999975,0.7744081380999841,0.5800000000000004
-1.020106927231233e-05,987.1615044320404,91,12.838495567959606,1000,0.0,11.699999999999974,0.7744071179930568,0.5850000000000004
-9.349949705938523e-06,987.0840638137406,91,12.915936186259415,1000,0.0,11.799999999999974,0.7744061829980863,0.5900000000000004
-8.569843730689636e-06,987.0066232811392,91,12.993376718860787,1000,0.0,11.899999999999974,0.7744053260137133,0.5950000000000004
-7.854826134188148e-06,986.9291828270862,91,13.070817172913898,1000,0.0,11.999999999999973,0.7744045405310999,0.6000000000000004
-0.00012661610962819391,986.8517436391941,91,13.148256360805911,1000,0.0,12.099999999999973,0.7743918789201371,0.6050000000000004
-0.00011605197692731708,986.7743056118219,91,13.225694388178155,1000,0.0,12.199999999999973,0.7743802737224443,0.6100000000000004
-0.00010636940747340617,986.6968686481437,91,13.303131351856324,1000,0.0,12.299999999999972,0.774369636781697,0.6150000000000004
-9.74948116936515e-05,986.6194326594136,91,13.380567340586376,1000,0.0,12.399999999999972,0.7743598873005276,0.6200000000000004
-8.936074687317543e-05,986.541997564291,91,13.458002435708961,1000,0.0,12.499999999999972,0.7743509512258403,0.6250000000000004
-8.190540309503106e-05,986.4645632882225,91,13.535436711777514,1000,0.0,12.599999999999971,0.7743427606855308,0.6300000000000004
-7.507213226892569e-05,986.3871297628752,91,13.612870237124744,1000,0.0,12.69999999999997,0.7743352534723039,0.6350000000000005
-6.880901662356828e-05,986.3096969256181,91,13.690303074381807,1000,0.0,12.79999999999997,0.7743283725706416,0.6400000000000005
-6.306847333968158e-05,986.2322647190458,91,13.767735280954138,1000,0.0,12.89999999999997,0.7743220657233076,0.6450000000000005
-5.7806892288517584e-05,986.1548330905424,91,13.845166909457546,1000,0.0,12.99999999999997,0.7743162850340788,0.6500000000000005
-5.298430409206269e-05,986.0774019918821,91,13.922598008117914,1000,0.0,13.09999999999997,0.7743109866036696,0.6550000000000005
-4.8564075960645595e-05,985.9999713788625,91,14.000028621137522,1000,0.0,13.199999999999969,0.7743061301960735,0.6600000000000005
-8.501623519655508e-05,985.9225416160052,91,14.077458383994777,1000,0.0,13.299999999999969,0.7742976285725539,0.6650000000000005
-7.792381402069873e-05,985.8451126323861,91,14.154887367613892,1000,0.0,13.399999999999968,0.7742898361911519,0.6700000000000005
-7.142314162150795e-05,985.7676843629984,91,14.23231563700159,1000,0.0,13.499999999999968,0.7742826938769898,0.6750000000000005
-6.546483512035255e-05,985.6902567482591,91,14.309743251740938,1000,0.0,13.599999999999968,0.7742761473934777,0.6800000000000005
-6.000363450852971e-05,985.612829733556,91,14.387170266443942,1000,0.0,13.699999999999967,0.7742701470300268,0.6850000000000005
-5.499805815849606e-05,985.5354032688336,91,14.464596731166363,1000,0.0,13.799999999999967,0.774264647224211,0.6900000000000005
-5.04100871631466e-05,985.4579773082121,91,14.542022691787913,1000,0.0,13.899999999999967,0.7742596062154946,0.6950000000000005
-4.6204876084576893e-05,985.3805518096393,91,14.619448190360702,1000,0.0,13.999999999999966,0.7742549857278862,0.7000000000000005
-4.235048789669235e-05,985.3031267345714,91,14.69687326542861,1000,0.0,14.099999999999966,0.7742507506790965,0.7050000000000005
-3.8817651091646e-05,985.22570204768,91,14.77429795232001,1000,0.0,14.199999999999966,0.7742468689139874,0.7100000000000005
-3.55795370947728e-05,985.148277716584,91,14.851722283416038,1000,0.0,14.299999999999965,0.774243310960278,0.7150000000000005
-3.2611556284476514e-05,985.0708537116035,91,14.929146288396502,1000,0.0,14.399999999999965,0.7742400498046496,0.7200000000000005
-2.9891171059921896e-05,984.9934300055347,91,15.006569994465258,1000,0.0,14.499999999999964,0.7742370606875436,0.7250000000000005
-7.304670783038598e-05,984.9160070299331,91,15.083992970066934,1000,0.0,14.599999999999964,0.7742297560167606,0.7300000000000005
-6.695334679779973e-05,984.8385847238649,91,15.161415276135141,1000,0.0,14.699999999999964,0.7742230606820808,0.7350000000000005
-6.13683281439595e-05,984.7611630314799,91,15.238836968520069,1000,0.0,14.799999999999963,0.7742169238492664,0.7400000000000005
-5.624923502194164e-05,984.6837419015874,91,15.316258098412645,1000,0.0,14.899999999999963,0.7742112989257642,0.7450000000000006
-5.155719120006555e-05,984.6063212872667,91,15.393678712733308,1000,0.0,14.999999999999963,0.7742061432066443,0.7500000000000006
-4.7256565314101164e-05,984.5289011455117,91,15.47109885448832,1000,0.0,15.099999999999962,0.7742014175501128,0.7550000000000006
-4.3314699855684214e-05,984.4514814369037,91,15.548518563096332,1000,0.0,15.199999999999962,0.7741970860801273,0.7600000000000006
-3.9701662823743074e-05,984.3740621253123,91,15.625937874687716,1000,0.0,15.299999999999962,0.7741931159138449,0.7650000000000006
-3.63900201382523e-05,984.2966431776211,91,15.7033568223789,1000,0.0,15.399999999999961,0.774189476911831,0.7700000000000006
-3.335462707854349e-05,984.2192245634761,91,15.780775436523813,1000,0.0,15.499999999999961,0.7741861414491232,0.7750000000000006
-3.05724371506465e-05,984.1418062550556,91,15.858193744944353,1000,0.0,15.59999999999996,0.7741830842054082,0.7800000000000006
-2.8022326926518545e-05,984.0643882268583,91,15.935611773141625,1000,0.0,15.69999999999996,0.7741802819727155,0.7850000000000006
-2.568493551666939e-05,983.9869704555105,91,16.01302954448954,1000,0.0,15.79999999999996,0.7741777134791639,0.7900000000000006
