acceleration,altitude,balls,depth,seafloor,thruster,time,velocity,x_position
0.3809077187375415,994.9961909228126,112,5.003809077187375,1000,0.0,0.1,0.03809077187375415,0.005000000000000001
0.3801451490355246,994.9885803941349,112,5.011419605865106,1000,0.0,0.2,0.0761052867773066,0.010000000000000002
0.37786354347085893,994.9771912300224,112,5.022808769977545,1000,0.0,0.30000000000000004,0.1138916411243925,0.015000000000000003
0.37409024142355973,994.9620611634958,112,5.03793883650422,1000,0.0,0.4,0.15130066526674846,0.020000000000000004
0.36887616611919644,994.9432423353079,112,5.056757664692087,1000,0.0,0.5,0.1881882818786681,0.025000000000000005
0.3622943425834628,994.9208005636942,112,5.079199436305789,1000,0.0,0.6,0.2244177161370144,0.030000000000000006
0.3544376983305582,994.8948144150972,112,5.105185584902796,1000,0.0,0.7,0.2598614859700702,0.035
0.34541626123258684,994.8653741038879,112,5.134625896112129,1000,0.0,0.7999999999999999,0.29440311209332887,0.04000000000000001
0.33535389966009127,994.832580253682,112,5.167419746318063,1000,0.0,0.8999999999999999,0.327938502059338,0.04500000000000001
0.32438476918483605,994.7965425557842,112,5.203457444215846,1000,0.0,0.9999999999999999,0.3603769789778216,0.05000000000000002
0.31264963684549024,994.7573783615179,112,5.242621638482083,1000,0.0,1.0999999999999999,0.3916419426623706,0.05500000000000002
0.3002922484707894,994.7152112447669,112,5.284788755233028,1000,0.0,1.2,0.42167116750944955,0.060000000000000026
0.28745588830232444,994.670169569133,112,5.329830430866996,1000,0.0,1.3,0.450416756339682,0.06500000000000003
0.2742802555410517,994.6223850909437,112,5.3776149090563745,1000,0.0,1.4000000000000001,0.47784478189378715,0.07000000000000003
0.2608987523773782,994.5719916252305,112,5.428008374769527,1000,0.0,1.5000000000000002,0.503934657131525,0.07500000000000004
0.24743624561610422,994.5191237970612,112,5.48087620293884,1000,0.0,1.6000000000000003,0.5286782816931354,0.08000000000000004
0.2340073320213328,994.4639158955716,112,5.536084104428367,1000,0.0,1.7000000000000004,0.5520790148952687,0.08500000000000005
0.2207151083412858,994.4065008429986,112,5.593499157001307,1000,0.0,1.8000000000000005,0.5741505257293973,0.09000000000000005
0.2076504223347514,994.3470092862024,112,5.652990713797593,1000,0.0,1.9000000000000006,0.5949155679628724,0.09500000000000006
0.19489156200881166,994.2855688137861,112,5.714431186213969,1000,0.0,2.0000000000000004,0.6144047241637536,0.10000000000000006
0.1825043270244932,994.2223032980994,112,5.777696701900589,1000,0.0,2.1000000000000005,0.6326551568662029,0.10500000000000007
0.1705424186083839,994.1573323582267,112,5.842667641773293,1000,0.0,2.2000000000000006,0.6497093987270413,0.11000000000000007
0.15904808168816373,994.0907709375372,112,5.909229062462878,1000,0.0,2.3000000000000007,0.6656142068958576,0.11500000000000007
0.14805293445741044,994.022728987503,112,5.977271012497038,1000,0.0,2.400000000000001,0.6804195003415986,0.12000000000000008
0.1375789251677927,993.9533112482171,112,6.046688751782876,1000,0.0,2.500000000000001,0.6941773928583779,0.12500000000000008
0.1275970689568715,993.8826175382417,112,6.117382461758282,1000,0.0,2.600000000000001,0.706937099754065,0.1300000000000001
0.11820078310969456,993.8107418204352,112,6.189258179564786,1000,0.0,2.700000000000001,0.7187571780650345,0.1350000000000001
0.10934374207179007,993.737772665208,112,6.262227334792007,1000,0.0,2.800000000000001,0.7296915522722135,0.1400000000000001
0.10101961010612276,993.6637933138798,112,6.336206686120289,1000,0.0,2.9000000000000012,0.7397935132828257,0.1450000000000001
0.09321748767116315,993.5888817876747,112,6.411118212325284,1000,0.0,3.0000000000000013,0.749115262049942,0.1500000000000001
0.0859227886088429,993.5131110335836,112,6.486888966416366,1000,0.0,3.1000000000000014,0.7577075409108264,0.1550000000000001
0.07911803438412432,993.4365490991487,112,6.56345090085129,1000,0.0,3.2000000000000015,0.7656193443492388,0.16000000000000011
0.07278356133602605,993.3592593291004,112,6.640740670899574,1000,0.0,3.3000000000000016,0.7728977004828415,0.16500000000000012
0.06689814066039698,993.2813005776455,112,6.7186994223544625,1000,0.0,3.4000000000000017,0.7795875145488812,0.17000000000000012
0.06143951368861172,993.2027274310537,112,6.797272568946236,1000,0.0,3.5000000000000018,0.7857314659177423,0.17500000000000013
0.05638484706445802,993.1235904359913,112,6.8764095640086556,1000,0.0,3.600000000000002,0.7913699506241881,0.18000000000000013
0.05171111377721637,993.0439363297911,112,6.956063670208847,1000,0.0,3.700000000000002,0.7965410620019098,0.18500000000000014
0.04739540680664901,992.9638082695229,112,7.036191730477104,1000,0.0,3.800000000000002,0.8012806026825747,0.19000000000000014
0.0433697909688392,992.883246511345,112,7.11675348865505,1000,0.0,3.900000000000002,0.8056175817794586,0.19500000000000015
0.03970693700028938,992.802287683797,112,7.197712316202999,1000,0.0,4.000000000000002,0.8095882754794875,0.20000000000000015
0.03633609665691455,992.7209654952825,112,7.279034504717517,1000,0.0,4.100000000000001,0.813221885145179,0.20500000000000015
0.03323689449891778,992.639310937823,112,7.360689062177024,1000,0.0,4.200000000000001,0.8165455745950708,0.21000000000000016
0.03038987791897397,992.5573524815843,112,7.442647518415721,1000,0.0,4.300000000000001,0.8195845623869682,0.21500000000000016
0.02777656921367336,992.4751162596534,112,7.524883740346555,1000,0.0,4.4,0.8223622193083355,0.22000000000000017
0.025379494362114015,992.392626242779,112,7.607373757221009,1000,0.0,4.5,0.824900168744547,0.22500000000000017
0.023182192807003347,992.3099044039765,112,7.690095596023534,1000,0.0,4.6,0.8272183880252473,0.23000000000000018
0.021169211980678535,992.2269708730541,112,7.773029126945866,1000,0.0,4.699999999999999,0.8293353092233151,0.23500000000000018
0.01932608980098728,992.1438440812337,112,7.856155918766207,1000,0.0,4.799999999999999,0.8312679182034138,0.24000000000000019
0.017639327887280325,992.0605408961346,112,7.939459103865421,1000,0.0,4.899999999999999,0.8330318509921418,0.2450000000000002
0.016096357818402157,991.9770767474572,112,8.02292325254282,1000,0.0,4.999999999999998,0.8346414867739821,0.25000000000000017
0.014623902988906373,991.8934663597499,112,8.106533640250106,1000,0.0,5.099999999999998,0.8361038770728727,0.25500000000000017
0.013339739823338895,991.8097225746444,112,8.190277425355626,1000,0.0,5.1999999999999975,0.8374378510552066,0.2600000000000002
0.012166381789282085,991.725857125721,112,8.27414287427904,1000,0.0,5.299999999999997,0.8386544892341349,0.2650000000000002
0.01109460085124821,991.641880730789,112,8.358119269210965,1000,0.0,5.399999999999997,0.8397639493192597,0.2700000000000002
0.01011588060878476,991.557803177051,112,8.44219682294898,1000,0.0,5.4999999999999964,0.8407755373801381,0.2750000000000002
0.009222371338247926,991.4736333995996,112,8.526366600400376,1000,0.0,5.599999999999996,0.8416977745139629,0.2800000000000002
0.008406846044008421,991.3893795536878,112,8.610620446312213,1000,0.0,5.699999999999996,0.8425384591183637,0.2850000000000002
0.007662657899668883,991.3050490811969,112,8.694950918803046,1000,0.0,5.799999999999995,0.8433047249083305,0.2900000000000002
0.006983699355735557,991.2206487717126,112,8.779351228287437,1000,0.0,5.899999999999995,0.8440030948439041,0.2950000000000002
0.006364363104919935,991.1361848185971,112,8.863815181402877,1000,0.0,5.999999999999995,0.8446395311543962,0.3000000000000002
0.005799505027087817,991.0516628704314,112,8.948337129568587,1000,0.0,6.099999999999994,0.8452194816571049,0.3050000000000002
0.005284409180364749,990.9670880781739,112,9.032911921826102,1000,0.0,6.199999999999994,0.8457479225751414,0.3100000000000002
0.004771000268577266,990.8824655759137,112,9.117534424086301,1000,0.0,6.299999999999994,0.8462250226019992,0.3150000000000002
0.004346721363033813,990.7977996064399,112,9.202200393560132,1000,0.0,6.399999999999993,0.8466596947383025,0.32000000000000023
0.003959964730225507,990.7130940373187,112,9.286905962681264,1000,0.0,6.499999999999993,0.8470556912113251,0.32500000000000023
0.003607447511378823,990.6283523937225,112,9.37164760627751,1000,0.0,6.5999999999999925,0.847416435962463,0.33000000000000024
0.0032861679969595496,990.5435778884463,112,9.456422111553726,1000,0.0,6.699999999999992,0.847745052762159,0.33500000000000024
0.0029933825920319215,990.4587734493441,112,9.541226550655862,1000,0.0,6.799999999999992,0.8480443910213621,0.34000000000000025
0.002726584486948012,990.3739417443971,112,9.626058255602867,1000,0.0,6.8999999999999915,0.8483170494700569,0.34500000000000025
0.002483483939946459,990.2890852046107,112,9.710914795389272,1000,0.0,6.999999999999991,0.8485653978640516,0.35000000000000026
0.0022619900768784938,990.2042060449236,112,9.795793955076446,1000,0.0,7.099999999999991,0.8487915968717394,0.35500000000000026
0.00206019411360688,990.1193062832953,112,9.880693716704757,1000,0.0,7.19999999999999,0.8489976162831001,0.36000000000000026
0.0018763539082427508,990.0343877581279,112,9.96561224187215,1000,0.0,7.29999999999999,0.8491852516739243,0.36500000000000027
0.0017088797529743673,989.9494521441629,112,10.05054785583707,1000,0.0,7.39999999999999,0.8493561396492217,0.3700000000000003
0.0015207824287292134,989.8645013223737,112,10.13549867762628,1000,0.0,7.499999999999989,0.8495082178920946,0.3750000000000003
0.0013849898771252295,989.7795366506857,112,10.220463349314262,1000,0.0,7.599999999999989,0.8496467168798072,0.3800000000000003
0.0012613012587482776,989.6945593659851,112,10.305440634014829,1000,0.0,7.699999999999989,0.849772847005682,0.3850000000000003
0.0011486412966360895,989.6095705948717,112,10.390429405128364,1000,0.0,7.799999999999988,0.8498877111353457,0.3900000000000003
0.0010460296207358169,989.5245713634619,112,10.475428636538107,1000,0.0,7.899999999999988,0.8499923140974193,0.3950000000000003
0.0009525724968691932,989.4395626063272,112,10.560437393672817,1000,0.0,7.999999999999988,0.8500875713471062,0.4000000000000003
0.0008674552583343727,989.3545451746398,112,10.645454825360112,1000,0.0,8.099999999999987,0.8501743168729397,0.4050000000000003
0.0007899353836115434,989.2695198435988,112,10.730480156401242,1000,0.0,8.199999999999987,0.8502533104113008,0.4100000000000003
0.000719336167623401,989.1844873191959,112,10.815512680804048,1000,0.0,8.299999999999986,0.8503252440280632,0.4150000000000003
0.0006550409378178068,989.0994482443838,112,10.900551755616233,1000,0.0,8.399999999999986,0.850390748121845,0.4200000000000003
0.0005964877699596919,989.0144032046938,112,10.985596795306117,1000,0.0,8.499999999999986,0.8504503968988409,0.4250000000000003
0.0005431646619401537,988.9293527333574,112,11.07064726664262,1000,0.0,8.599999999999985,0.850504713365035,0.4300000000000003
0.0004576172744684794,988.8442976858481,112,11.155702314151869,1000,0.0,8.699999999999985,0.8505504750924818,0.43500000000000033
0.000416703211449179,988.7592384713067,112,11.24076152869323,1000,0.0,8.799999999999985,0.8505921454136267,0.44000000000000034
0.0003794452260045918,988.6741754623132,112,11.325824537686854,1000,0.0,8.899999999999984,0.8506300899362271,0.44500000000000034
0.00034551693853507445,988.5891089981501,112,11.410891001849862,1000,0.0,8.999999999999984,0.8506646416300806,0.45000000000000034
0.00031462104956242123,988.5040393877766,112,11.495960612223366,1000,0.0,9.099999999999984,0.8506961037350368,0.45500000000000035
0.0002864867582811337,988.4189669125356,112,11.581033087464451,1000,0.0,9.199999999999983,0.8507247524108649,0.46000000000000035
0.00026086740862728324,988.3338918286204,112,11.666108171379625,1000,0.0,9.299999999999983,0.8507508391517276,0.46500000000000036
0.00023753834309538137,988.2488143693217,112,11.75118563067823,1000,0.0,9.399999999999983,0.8507745929860371,0.47000000000000036
0.00021629494620006533,988.1637347470737,112,11.836265252926294,1000,0.0,9.499999999999982,0.8507962224806571,0.47500000000000037
0.00019695086101819393,988.078653155317,112,11.92134684468297,1000,0.0,9.599999999999982,0.8508159175667589,0.48000000000000037
0.00017933636366054473,987.9935697701967,112,12.006430229803282,1000,0.0,9.699999999999982,0.8508338512031249,0.4850000000000004
0.00010489024790247278,987.908485336174,112,12.091514663826073,1000,0.0,9.799999999999981,0.8508443402279152,0.4900000000000004
9.550886361454761e-05,987.8233999470625,112,12.1766000529375,1000,0.0,9.89999999999998,0.8508538911142767,0.4950000000000004
8.696644978440388e-05,987.7383136882866,112,12.261686311713426,1000,0.0,9.99999999999998,0.8508625877592552,0.5000000000000003
7.918799507838305e-05,987.6532266376307,112,12.346773362369301,1000,0.0,10.09999999999998,0.850870506558763,0.5050000000000003
7.210519189745389e-05,987.568138865923,112,12.431861134077097,1000,0.0,10.19999999999998,0.8508777170779527,0.5100000000000003
6.565583776889818e-05,987.4830504376567,112,12.516949562343271,1000,0.0,10.29999999999998,0.8508842826617296,0.5150000000000003
5.978329010517718e-05,987.3979614115576,112,12.602038588442346,1000,0.0,10.399999999999979,0.85089026099074,0.5200000000000004
5.443596958615446e-05,987.3128718410989,112,12.687128158901116,1000,0.0,10.499999999999979,0.8508957045876987,0.5250000000000004
4.956690784100687e-05,987.227781774971,112,12.772218225028965,1000,0.0,10.599999999999978,0.8509006612784829,0.5300000000000004
4.513333548839209e-05,987.1426912575098,112,12.857308742490169,1000,0.0,10.699999999999978,0.8509051746120317,0.5350000000000004
4.109630694190694e-05,987.0576003290855,112,12.94239967091444,1000,0.0,10.799999999999978,0.8509092842427259,0.5400000000000004
3.74203587070524e-05,986.9725090264577,112,13.0274909735423,1000,0.0,10.899999999999977,0.8509130262785967,0.5450000000000004
-1.2704418752071993e-05,986.887417850874,112,13.112582149125972,1000,0.0,10.999999999999977,0.8509117558367214,0.5500000000000004
-1.1568032172808537e-05,986.8023267909707,112,13.197673209029322,1000,0.0,11.099999999999977,0.8509105990335041,0.5550000000000004
-1.0533294730931601e-05,986.7172358364003,112,13.282764163599724,1000,0.0,11.199999999999976,0.850909545704031,0.5600000000000004
-9.591113716342888e-06,986.6321449777411,112,13.36785502225899,1000,0.0,11.299999999999976,0.8509085865926593,0.5650000000000004
-8.733209822351557e-06,986.5470542064138,112,13.452945793586158,1000,0.0,11.399999999999975,0.8509077132716771,0.5700000000000004
-7.95204437406599e-06,986.4619635146071,112,13.538036485392881,1000,0.0,11.499999999999975,0.8509069180672397,0.5750000000000004
-7.240753068218935e-06,986.376872895208,112,13.623127104792074,1000,0.0,11.599999999999975,0.8509061939919329,0.5800000000000004
-6.5930856427008205e-06,986.2917823417396,112,13.708217658260411,1000,0.0,11.699999999999974,0.8509055346833686,0.5850000000000004
-6.003350943429652e-06,986.2066918483048,112,13.79330815169524,1000,0.0,11.799999999999974,0.8509049343482743,0.5900000000000004
-5.4663669067936935e-06,986.1216014095336,112,13.878398590466398,1000,0.0,11.899999999999974,0.8509043877115836,0.5950000000000004
-4.977415016910513e-06,986.0365110205366,112,13.963488979463406,1000,0.0,11.999999999999973,0.8509038899700819,0.6000000000000004
-4.532198838291e-06,985.9514206768615,112,14.048579323138426,1000,0.0,12.099999999999973,0.8509034367501981,0.6050000000000004
-4.594672557121236e-05,985.8663307926538,112,14.133669207346191,1000,0.0,12.199999999999973,0.850898842077641,0.6100000000000004
-4.183691342803291e-05,985.7812413268152,112,14.218758673184821,1000,0.0,12.299999999999972,0.8508946583862982,0.6150000000000004
-3.8094732330543075e-05,985.6961522419239,112,14.303847758076127,1000,0.0,12.399999999999972,0.8508908489130651,0.6200000000000004
-3.4687293636390487e-05,985.6110635039055,112,14.388936496094498,1000,0.0,12.499999999999972,0.8508873801837015,0.6250000000000004
-3.158465151747237e-05,985.5259750817337,112,14.474024918266354,1000,0.0,12.599999999999971,0.8508842217185497,0.6300000000000004
-2.875953954669644e-05,985.4408869471572,112,14.559113052842813,1000,0.0,12.69999999999997,0.8508813457645951,0.6350000000000005
-2.618713087867098e-05,985.3557990744521,112,14.644200925547963,1000,0.0,12.79999999999997,0.8508787270515072,0.6400000000000005
-2.3844819909166196e-05,985.2707114401951,112,14.729288559804916,1000,0.0,12.89999999999997,0.8508763425695163,0.6450000000000005
-2.1712023487353018e-05,985.1856240230584,112,14.814375976941632,1000,0.0,12.99999999999997,0.8508741713671676,0.6500000000000005
-1.9769999927876627e-05,985.1005368036217,112,14.899463196378349,1000,0.0,13.09999999999997,0.8508721943671748,0.6550000000000005
-1.8001684226421756e-05,985.0154497642018,112,14.984550235798224,1000,0.0,13.199999999999969,0.8508703941987521,0.6600000000000005
-1.6391538028557517e-05,984.9303628886972,112,15.069637111302718,1000,0.0,13.299999999999969,0.8508687550449493,0.6650000000000005
-6.869049065464486e-05,984.8452767000977,112,15.154723299902306,1000,0.0,13.399999999999968,0.8508618859958839,0.6700000000000005
-6.254653431056402e-05,984.7601911369635,112,15.23980886303655,1000,0.0,13.499999999999968,0.8508556313424528,0.6750000000000005
-5.695216150822683e-05,984.6751061433508,112,15.324893856649181,1000,0.0,13.599999999999968,0.850849936126302,0.6800000000000005
-5.185820403279068e-05,984.5900216683202,112,15.40997833167977,1000,0.0,13.699999999999967,0.8508447503058987,0.6850000000000005
-4.721989373896478e-05,984.5049376654886,112,15.495062334511424,1000,0.0,13.799999999999967,0.8508400283165248,0.6900000000000005
-4.2996468572650725e-05,984.4198540926216,112,15.580145907378391,1000,0.0,13.899999999999967,0.8508357286696676,0.6950000000000005
-3.915081390621441e-05,984.3347709112628,112,15.665229088737219,1000,0.0,13.999999999999966,0.850831813588277,0.7000000000000005
-3.5649136015689316e-05,984.2496880863953,112,15.750311913604687,1000,0.0,14.099999999999966,0.8508282486746754,0.7050000000000005
-3.2460664813477616e-05,984.1646055861345,112,15.835394413865506,1000,0.0,14.199999999999966,0.850825002608194,0.7100000000000005
-2.955738321207982e-05,984.0795233814475,112,15.920476618552494,1000,0.0,14.299999999999965,0.8508220468698728,0.7150000000000005
-2.6913780728752994e-05,983.9944414458984,112,16.005558554101672,1000,0.0,14.399999999999965,0.8508193554918,0.7200000000000005
-4.670255419493475e-05,983.9093599773747,112,16.09064002262531,1000,0.0,14.499999999999964,0.8508146852363805,0.7250000000000005
-4.252551582678062e-05,983.8242789341062,112,16.17572106589379,1000,0.0,14.599999999999964,0.8508104326847978,0.7300000000000005
-3.8722088308561384e-05,983.7391982780587,112,16.260801721941387,1000,0.0,14.699999999999964,0.850806560475967,0.7350000000000005
-3.525885099868527e-05,983.6541179745996,112,16.345882025400474,1000,0.0,14.799999999999963,0.8508030345908671,0.7400000000000005
-3.210537341725952e-05,983.5690379921941,112,16.430962007805828,1000,0.0,14.899999999999963,0.8507998240535254,0.7450000000000006
-2.9233947615271516e-05,983.4839583021283,112,16.516041697871703,1000,0.0,14.999999999999963,0.8507969006587639,0.7500000000000006
-2.661934451477351e-05,983.3988788782559,112,16.601121121744136,1000,0.0,15.099999999999962,0.8507942387243124,0.7550000000000006
-2.4238592070177517e-05,983.3137996967694,112,16.686200303230645,1000,0.0,15.199999999999962,0.8507918148651054,0.7600000000000006
-2.207077329403155e-05,983.2287207359906,112,16.771279264009422,1000,0.0,15.299999999999962,0.8507896077877759,0.7650000000000006
-2.0096842366015417e-05,983.1436419761802,112,16.856358023819777,1000,0.0,15.399999999999961,0.8507875981035393,0.7700000000000006
-1.8299457205704166e-05,983.0585633993644,112,16.94143660063556,1000,0.0,15.499999999999961,0.8507857681578187,0.7750000000000006
-1.6662827032497635e-05,982.9734849891769,112,17.02651501082307,1000,0.0,15.59999999999996,0.8507841018751154,0.7800000000000006
-5.204497829554011e-05,982.8884070994392,112,17.111592900560797,1000,0.0,15.69999999999996,0.8507788973772858,0.7850000000000006
