acceleration,altitude,balls,depth,seafloor,thruster,time,velocity,x_position
0.4126654684567531,994.9958733453154,112,5.004126654684567,1000,0.0,0.1,0.041266546845675316,0.005000000000000001
0.41177345571365426,994.9876289560738,112,5.012371043926271,1000,0.0,0.2,0.08244389241704075,0.010000000000000002
0.4091051259727862,994.9752935155723,112,5.024706484427703,1000,0.0,0.30000000000000004,0.12335440501431938,0.015000000000000003
0.40469499487829663,994.9589111251221,112,5.041088874877918,1000,0.0,0.4,0.16382390450214904,0.020000000000000004
0.39860728049254635,994.9385426618669,112,5.061457338133058,1000,0.0,0.5,0.20368463255140368,0.025000000000000005
0.3909338871758148,994.91426485974,112,5.085735140259957,1000,0.0,0.6,0.24277802126898515,0.030000000000000006
0.3817914232576609,994.8861691433806,112,5.113830856619432,1000,0.0,0.7,0.28095716359475126,0.035
0.37131741963488557,994.8543602528248,112,5.145639747175256,1000,0.0,0.7999999999999999,0.3180889055582398,0.04000000000000001
0.3596659596693549,994.8189547026723,112,5.181045297327773,1000,0.0,0.8999999999999999,0.3540555015251753,0.04500000000000001
0.3470029561891117,994.7800791229578,112,5.219920877042182,1000,0.0,0.9999999999999999,0.3887557971440865,0.05000000000000002
0.33350131766879715,994.7378685300667,112,5.262131469933279,1000,0.0,1.0999999999999999,0.4221059289109662,0.05500000000000002
0.319336233598144,994.6924645748396,112,5.307535425160357,1000,0.0,1.2,0.45403955227078063,0.060000000000000026
0.3046807813467984,994.6440138117991,112,5.355986188200903,1000,0.0,1.3,0.48450763040546047,0.06500000000000003
0.2897020175696115,994.5926660285828,112,5.407333971417145,1000,0.0,1.4000000000000001,0.5134778321624216,0.07000000000000003
0.27455767114192076,994.5385726686552,112,5.461427331344806,1000,0.0,1.5000000000000002,0.5409335992766137,0.07500000000000004
0.2593935065768591,994.4818853736617,112,5.518114626338236,1000,0.0,1.6000000000000003,0.5668729499342996,0.08000000000000004
0.24434138112782003,994.422754664857,112,5.577245335142944,1000,0.0,1.7000000000000004,0.5913070880470817,0.08500000000000005
0.2295179786532913,994.3613287762659,112,5.638671223734185,1000,0.0,1.8000000000000005,0.6142588859124107,0.09000000000000005
0.21502417101377566,994.2977526459645,112,5.702247354035564,1000,0.0,1.9000000000000006,0.6357613030137883,0.09500000000000006
0.20094493432349408,994.2321670663198,112,5.767832933680178,1000,0.0,2.0000000000000004,0.6558557964461377,0.10000000000000006
0.18734973281541678,994.1647079893471,112,5.835292010652946,1000,0.0,2.1000000000000005,0.6745907697276794,0.10500000000000007
0.1742932766271682,994.095505979608,112,5.904494020391986,1000,0.0,2.2000000000000006,0.6920200973903963,0.11000000000000007
0.16181656018217105,994.0246858042672,112,5.975314195732847,1000,0.0,2.3000000000000007,0.7082017534086134,0.11500000000000007
0.1499480934632369,993.9523661479917,112,6.047633852008341,1000,0.0,2.400000000000001,0.723196562754937,0.12000000000000008
0.13870524774651924,993.8786594392387,112,6.1213405607613,1000,0.0,2.500000000000001,0.7370670875295889,0.12500000000000008
0.12809564879181473,993.8036717739978,112,6.196328226002176,1000,0.0,2.600000000000001,0.7498766524087704,0.1300000000000001
0.11811856280226404,993.7275029231289,112,6.272497076871076,1000,0.0,2.700000000000001,0.7616885086889968,0.1350000000000001
0.10876623267681301,993.6502464099333,112,6.349753590066744,1000,0.0,2.800000000000001,0.7725651319566782,0.1400000000000001
0.10002513346682648,993.5719896454029,112,6.42801035459708,1000,0.0,2.9000000000000012,0.7825676453033609,0.1450000000000001
0.09187712605643657,993.492814109612,112,6.507185890387981,1000,0.0,3.0000000000000013,0.7917553579090045,0.1500000000000001
0.08430049667499755,993.4127955688543,112,6.587204431145631,1000,0.0,3.1000000000000014,0.8001854075765042,0.1550000000000001
0.07727087685054113,993.3320043193282,112,6.667995680671787,1000,0.0,3.2000000000000015,0.8079124952615584,0.16000000000000011
0.07076204387981097,993.2505054493632,112,6.749494550636741,1000,0.0,3.3000000000000016,0.8149886996495395,0.16500000000000012
0.06474660595854297,993.1683591133387,112,6.8316408866612806,1000,0.0,3.4000000000000017,0.8214633602453938,0.17000000000000012
0.05919657896589553,993.0856208115246,112,6.914379188475479,1000,0.0,3.5000000000000018,0.8273830181419833,0.17500000000000013
0.05408386372843104,993.002341671073,112,6.997658328926962,1000,0.0,3.600000000000002,0.8327914045148265,0.18000000000000013
0.0493806335997923,992.9185687242856,112,7.081431275714442,1000,0.0,3.700000000000002,0.8377294678748057,0.18500000000000014
0.04505964256634124,992.8343451810724,112,7.165654818927586,1000,0.0,3.800000000000002,0.8422354321314398,0.19000000000000014
0.04109446398940658,992.7497106932194,112,7.250289306780624,1000,0.0,3.900000000000002,0.8463448785303804,0.19500000000000015
0.037459669659804844,992.6647016086697,112,7.3352983913302605,1000,0.0,4.000000000000002,0.8500908454963609,0.20000000000000015
0.034130958183382604,992.5793512145383,112,7.42064878546173,1000,0.0,4.100000000000001,0.8535039413146992,0.20500000000000015
0.03108524092738729,992.4936899679975,112,7.5063100320024745,1000,0.0,4.200000000000001,0.856612465407438,0.21000000000000016
0.028300692905440177,992.4077457145278,112,7.592254285472273,1000,0.0,4.300000000000001,0.8594425346979819,0.21500000000000016
0.025756775114673905,992.3215438933067,112,7.6784561066932175,1000,0.0,4.4,0.8620182122094493,0.22000000000000017
0.023434233998230837,992.2351077297459,112,7.764892270254145,1000,0.0,4.5,0.8643616356092724,0.22500000000000017
0.021315082913870242,992.1484584153558,112,7.8515415846442105,1000,0.0,4.6,0.8664931439006593,0.23000000000000018
0.01938256975964875,992.0616152752681,112,7.938384724731873,1000,0.0,4.699999999999999,0.8684314008766242,0.23500000000000018
0.017621134248233188,991.974595923838,112,8.025404076162017,1000,0.0,4.799999999999999,0.8701935143014475,0.24000000000000019
0.016016357734935673,991.8874164088305,112,8.11258359116951,1000,0.0,4.899999999999999,0.8717951500749411,0.2450000000000002
0.014554907989965792,991.8000913447431,112,8.199908655256904,1000,0.0,4.999999999999998,0.8732506408739377,0.25000000000000017
0.013224480859174142,991.7126340358471,112,8.287365964152889,1000,0.0,5.099999999999998,0.8745730889598551,0.25500000000000017
0.012013740374748684,991.6250565895474,112,8.374943410452621,1000,0.0,5.1999999999999975,0.87577446299733,0.2600000000000002
0.010912258552088192,991.5373700206621,112,8.462629979337875,1000,0.0,5.299999999999997,0.8768656888525388,0.2650000000000002
0.009910455835311492,991.4495843472185,112,8.550415652781481,1000,0.0,5.399999999999997,0.8778567344360699,0.2700000000000002
0.008999542925459155,991.3617086783456,112,8.638291321654343,1000,0.0,5.4999999999999964,0.8787566887286159,0.2750000000000002
0.00817146453657479,991.2737512948274,112,8.726248705172571,1000,0.0,5.599999999999996,0.8795738351822734,0.2800000000000002
0.00741884547007124,991.1857197228545,112,8.8142802771455,1000,0.0,5.699999999999996,0.8803157197292805,0.2850000000000002
0.006734939272141613,991.0976208014888,112,8.902379198511149,1000,0.0,5.799999999999995,0.8809892136564946,0.2900000000000002
0.0061135796380307,991.0094607443268,112,8.990539255673179,1000,0.0,5.899999999999995,0.8816005716202977,0.2950000000000002
0.005549134646794186,990.9212451958183,112,9.078754804181676,1000,0.0,5.999999999999995,0.8821554850849771,0.3000000000000002
0.005036463847335197,990.8329792826713,112,9.167020717328647,1000,0.0,6.099999999999994,0.8826591314697106,0.3050000000000002
0.0045708781680250015,990.7446676607427,112,9.255332339257299,1000,0.0,6.199999999999994,0.8831162192865132,0.3100000000000002
0.004148102585565541,990.6563145577882,112,9.343685442211806,1000,0.0,6.299999999999994,0.8835310295450698,0.3150000000000002
0.003764241461748694,990.567923812419,112,9.43207618758093,1000,0.0,6.399999999999993,0.8839074536912447,0.32000000000000023
0.0034157464375919894,990.4794989095856,112,9.520501090414431,1000,0.0,6.499999999999993,0.8842490283350039,0.32500000000000023
0.0030993867614393777,990.3910430128844,112,9.608956987115546,1000,0.0,6.5999999999999925,0.8845589670111478,0.33000000000000024
0.002812221919727359,990.3025589939641,112,9.697441006035858,1000,0.0,6.699999999999992,0.8848401892031205,0.33500000000000024
0.002551576435167024,990.2140494592795,112,9.78595054072052,1000,0.0,6.799999999999992,0.8850953468466372,0.34000000000000025
0.002315016696200019,990.1255167744279,112,9.874483225572146,1000,0.0,6.8999999999999915,0.8853268485162572,0.34500000000000025
0.0021003296830410826,990.0369630862793,112,9.963036913720602,1000,0.0,6.999999999999991,0.8855368814845613,0.35000000000000026
0.0019055034588221496,989.9483903430963,112,10.051609656903647,1000,0.0,7.099999999999991,0.8857274318304436,0.35500000000000026
0.0017287092988437396,989.8598003128203,112,10.14019968717968,1000,0.0,7.19999999999999,0.8859003027603279,0.36000000000000026
0.0015682853363254631,989.771194599691,112,10.228805400309076,1000,0.0,7.29999999999999,0.8860571312939605,0.36500000000000027
0.0014227216090309503,989.6825746593454,112,10.317425340654562,1000,0.0,7.39999999999999,0.8861994034548636,0.3700000000000003
0.0012906463974841598,989.593941812536,112,10.406058187464023,1000,0.0,7.499999999999989,0.886328468094612,0.3750000000000003
0.0011708137520064286,989.505297257589,112,10.494702742411004,1000,0.0,7.599999999999989,0.8864455494698126,0.3800000000000003
0.0010620921123332392,989.4166420817209,112,10.583357918279109,1000,0.0,7.699999999999989,0.8865517586810459,0.3850000000000003
0.0009634539300271366,989.3279772713134,112,10.672022728686514,1000,0.0,7.799999999999988,0.8866481040740486,0.3900000000000003
0.0008739662101812985,989.239303721244,112,10.76069627875602,1000,0.0,7.899999999999988,0.8867355006950667,0.3950000000000003
0.0007927818949693905,989.1506222433555,112,10.849377756644477,1000,0.0,7.999999999999988,0.8868147788845636,0.4000000000000003
0.0007191320173897427,989.0619335741469,112,10.938066425853108,1000,0.0,8.099999999999987,0.8868866920863026,0.4050000000000003
0.000652318559050774,988.9732383817527,112,11.02676161824733,1000,0.0,8.199999999999987,0.8869519239422077,0.4100000000000003
0.0005917079510346234,988.884537272279,112,11.115462727721061,1000,0.0,8.299999999999986,0.8870110947373111,0.4150000000000003
0.0005367251617561571,988.7958307955536,112,11.20416920444641,1000,0.0,8.399999999999986,0.8870647672534867,0.4200000000000003
0.0004868483202920766,988.7071194503451,112,11.292880549654962,1000,0.0,8.499999999999986,0.887113452085516,0.4250000000000003
0.00044160382790948017,988.6184036890982,112,11.381596310901793,1000,0.0,8.599999999999985,0.8871576124683069,0.4300000000000003
0.0004005619144762928,988.5296839222323,112,11.47031607776777,1000,0.0,8.699999999999985,0.8871976686597546,0.43500000000000033
0.00036333260009238427,988.4409605220402,112,11.559039477959747,1000,0.0,8.799999999999985,0.8872340019197639,0.44000000000000034
0.0003295620256732858,988.352233826228,112,11.64776617377198,1000,0.0,8.899999999999984,0.8872669581223313,0.44500000000000034
0.00029892911933719293,988.2635041411246,112,11.736495858875408,1000,0.0,8.999999999999984,0.8872968510342649,0.45000000000000034
0.0002711425683251872,988.1747717445954,112,11.825228255404518,1000,0.0,9.099999999999984,0.8873239652910975,0.45500000000000035
0.00024593806883194634,988.0860368886857,112,11.913963111314317,1000,0.0,9.199999999999983,0.8873485590979807,0.46000000000000035
0.0002230758285512667,987.9972998020176,112,12.002700197982401,1000,0.0,9.299999999999983,0.8873708666808359,0.46500000000000036
0.0002023382989709912,987.9085606919665,112,12.091439308033474,1000,0.0,9.399999999999983,0.887391100510733,0.47000000000000036
0.00018352811649323132,987.8198197466343,112,12.180180253365712,1000,0.0,9.499999999999982,0.8874094533223823,0.47500000000000037
0.00016646623332126822,987.7310771366397,112,12.268922863360284,1000,0.0,9.599999999999982,0.8874260999457144,0.48000000000000037
0.0001509902207671292,987.6423330167429,112,12.357666983257063,1000,0.0,9.699999999999982,0.8874411989677912,0.4850000000000004
0.00013695272919042476,987.5535875273189,112,12.446412472681134,1000,0.0,9.799999999999981,0.8874548942407102,0.4900000000000004
0.0001242200902047848,987.4648407956939,112,12.535159204306106,1000,0.0,9.89999999999998,0.8874673162497307,0.4950000000000004
0.00011267104809091475,987.3760929373584,112,12.62390706264156,1000,0.0,9.99999999999998,0.8874785833545399,0.5000000000000003
0.0001021956085352899,987.2873440570669,112,12.7126559429331,1000,0.0,10.09999999999998,0.8874888029153934,0.5050000000000003
9.269399389952541e-05,987.1985942498354,112,12.801405750164578,1000,0.0,10.19999999999998,0.8874980723147834,0.5100000000000003
8.407569520587255e-05,987.109843601847,112,12.890156398153009,1000,0.0,10.29999999999998,0.887506479884304,0.5150000000000003
7.62586119211938e-05,987.0210921912725,112,12.978907808727557,1000,0.0,10.399999999999979,0.887514105745496,0.5200000000000004
6.916827143950454e-05,986.9323400890152,112,13.06765991098482,1000,0.0,10.499999999999979,0.88752102257264,0.5250000000000004
6.27371209014452e-05,986.8435873593867,112,13.156412640613294,1000,0.0,10.599999999999978,0.8875272962847301,0.5300000000000004
5.69038846689013e-05,986.7548340607194,112,13.245165939280612,1000,0.0,10.699999999999978,0.887532986673197,0.5350000000000004
5.1612981383274335e-05,986.6660802459222,112,13.333919754077746,1000,0.0,10.799999999999978,0.8875381479713353,0.5400000000000004
4.6813995095921794e-05,986.5773259629851,112,13.422674037014831,1000,0.0,10.899999999999977,0.8875428293708449,0.5450000000000004
4.2461195466135294e-05,986.4885712554361,112,13.51142874456387,1000,0.0,10.999999999999977,0.8875470754903916,0.5500000000000004
3.8513102485070827e-05,986.3998161627561,112,13.600183837243934,1000,0.0,11.099999999999977,0.8875509268006401,0.5550000000000004
3.493209159846044e-05,986.3110607207551,112,13.688939279244915,1000,0.0,11.199999999999976,0.8875544200097999,0.5600000000000004
3.1684035487561474e-05,986.2223049619138,112,13.77769503808625,1000,0.0,11.299999999999976,0.8875575884133486,0.5650000000000004
2.873797910840143e-05,986.1335489156926,112,13.866451084307377,1000,0.0,11.399999999999975,0.8875604622112595,0.5700000000000004
2.6065844907111043e-05,986.044792608813,112,13.955207391186951,1000,0.0,11.499999999999975,0.8875630687957502,0.5750000000000004
2.364216541199224e-05,985.9560360655119,112,14.04396393448818,1000,0.0,11.599999999999975,0.8875654330122914,0.5800000000000004
2.1443840662037505e-05,985.8672793077722,112,14.132720692227817,1000,0.0,11.699999999999974,0.8875675773963576,0.5850000000000004
1.944991816926663e-05,985.7785223555334,112,14.221477644466635,1000,0.0,11.799999999999974,0.8875695223881745,0.5900000000000004
1.7641393321818548e-05,985.6897652268806,112,14.310234773119385,1000,0.0,11.899999999999974,0.8875712865275067,0.5950000000000004
1.6001028331522747e-05,985.6010079382175,112,14.398992061782419,1000,0.0,11.999999999999973,0.8875728866303398,0.6000000000000004
1.4513188003401217e-05,985.5122505044227,112,14.487749495577333,1000,0.0,12.099999999999973,0.8875743379491402,0.6050000000000004
1.3163690766506662e-05,985.4234929389909,112,14.576507061009154,1000,0.0,12.199999999999973,0.8875756543182168,0.6100000000000004
1.1939673547966986e-05,985.3347352541623,112,14.665264745837712,1000,0.0,12.299999999999972,0.8875768482855716,0.6150000000000004
1.0829469203860282e-05,985.245977461039,112,14.754022538960962,1000,0.0,12.399999999999972,0.887577931232492,0.6200000000000004
9.822495342456807e-06,985.1572195696908,112,14.842780430309165,1000,0.0,12.499999999999972,0.8875789134820262,0.6250000000000004
8.909153480150339e-06,985.0684615892511,112,14.931538410748903,1000,0.0,12.599999999999971,0.8875798043973743,0.6300000000000004
8.080737570073174e-06,984.9797035280039,112,15.020296471996016,1000,0.0,12.69999999999997,0.8875806124711313,0.6350000000000005
7.329351033798137e-06,984.8909453934633,112,15.10905460653664,1000,0.0,12.79999999999997,0.8875813454062347,0.6400000000000005
6.647831504251956e-06,984.8021871924444,112,15.197812807555579,1000,0.0,12.89999999999997,0.8875820101893851,0.6450000000000005
6.029682565058087e-06,984.7134289311286,112,15.286571068871343,1000,0.0,12.99999999999997,0.8875826131576416,0.6500000000000005
5.469011834919634e-06,984.6246706151228,112,15.375329384877226,1000,0.0,13.09999999999997,0.8875831600588251,0.6550000000000005
4.960474808080596e-06,984.5359122495122,112,15.464087750487856,1000,0.0,13.199999999999969,0.8875836561063059,0.6600000000000005
4.49922391511675e-06,984.4471538389092,112,15.552846161090725,1000,0.0,13.299999999999969,0.8875841060286974,0.6650000000000005
4.080862319638966e-06,984.3583953874978,112,15.641604612502219,1000,0.0,13.399999999999968,0.8875845141149293,0.6700000000000005
3.701402010876206e-06,984.2696368990722,112,15.730363100927732,1000,0.0,13.499999999999968,0.8875848842551304,0.6750000000000005
3.357225791375963e-06,984.1808783770745,112,15.819121622925504,1000,0.0,13.599999999999968,0.8875852199777096,0.6800000000000005
3.0450527993918297e-06,984.0921198246263,112,15.907880175373803,1000,0.0,13.699999999999967,0.8875855244829896,0.6850000000000005
2.7619072365004925e-06,984.0033612445588,112,15.996638755441174,1000,0.0,13.799999999999967,0.8875858006737132,0.6900000000000005
2.505090003410339e-06,983.9146026394405,112,16.085397360559444,1000,0.0,13.899999999999967,0.8875860511827135,0.6950000000000005
2.272152971480032e-06,983.8258440116008,112,16.174155988399246,1000,0.0,13.999999999999966,0.8875862783980106,0.7000000000000005
2.060875647666095e-06,983.7370853631522,112,16.262914636847803,1000,0.0,14.099999999999966,0.8875864844855754,0.7050000000000005
1.8692440086617824e-06,983.6483266960112,112,16.3516733039888,1000,0.0,14.199999999999966,0.8875866714099763,0.7100000000000005
1.695431303098333e-06,983.5595680119159,112,16.44043198808411,1000,0.0,14.299999999999965,0.8875868409531066,0.7150000000000005
1.53778063804753e-06,983.4708093124427,112,16.52919068755723,1000,0.0,14.399999999999965,0.8875869947311704,0.7200000000000005
1.394789185651513e-06,983.3820505990218,112,16.617949400978237,1000,0.0,14.499999999999964,0.887587134210089,0.7250000000000005
1.2650938575737903e-06,983.2932918729498,112,16.706708127050184,1000,0.0,14.599999999999964,0.8875872607194747,0.7300000000000005
1.1474583115130712e-06,983.2045331354033,112,16.795466864596715,1000,0.0,14.699999999999964,0.8875873754653059,0.7350000000000005
1.0407611659860208e-06,983.1157743874492,112,16.884225612550857,1000,0.0,14.799999999999963,0.8875874795414225,0.7400000000000005
9.439853108741237e-07,983.0270156300552,112,16.972984369944854,1000,0.0,14.899999999999963,0.8875875739399536,0.7450000000000006
8.562082118435001e-07,982.9382568640991,112,17.06174313590093,1000,0.0,14.999999999999963,0.8875876595607748,0.7500000000000006
-3.264356257094807e-05,982.8494984245787,112,17.15050157542138,1000,0.0,15.099999999999962,0.8875843952045177,0.7550000000000006
-2.960817408519456e-05,982.7607402811399,112,17.23925971886009,1000,0.0,15.199999999999962,0.8875814343871092,0.7600000000000006
-2.6855043346348083e-05,982.6719824062517,112,17.328017593748367,1000,0.0,15.299999999999962,0.8875787488827745,0.7650000000000006
-2.4357921776097482e-05,982.5832247749426,112,17.416775225057428,1000,0.0,15.399999999999961,0.8875763130905969,0.7700000000000006
-2.2093002088272064e-05,982.4944673645635,112,17.505532635436467,1000,0.0,15.499999999999961,0.8875741037903881,0.7750000000000006
-2.0038691178041064e-05,982.4057101545714,112,17.594289845428595,1000,0.0,15.59999999999996,0.8875720999212704,0.7800000000000006
-1.8175404149619977e-05,982.3169531263334,112,17.68304687366668,1000,0.0,15.69999999999996,0.8875702823808554,0.7850000000000006
